Time_sec,Signal_mV
0,-2.77039965820313
0.000250004493816508,-2.76698608398438
0.000500008987633017,-2.76377465820313
0.000750013481449525,-2.76379296875
0.00100001797526603,-2.76854614257813
0.00125002246908254,-2.7712255859375
0.00150002696289905,-2.7723818359375
0.00175003145671556,-2.77373974609375
0.00200003595053207,-2.7737763671875
0.00225004044434858,-2.769353515625
0.00250004493816508,-2.77306079101563
0.00275004943198159,-2.7741435546875
0.0030000539257981,-2.77443725585937
0.00325005841961461,-2.77309741210937
0.00350006291343112,-2.77205126953125
0.00375006740724763,-2.77203295898437
0.00400007190106414,-2.77082177734375
0.00425007639488064,-2.77036279296875
0.00450008088869715,-2.7694453125
0.00475008538251366,-2.76883959960937
0.00500008987633017,-2.77157421875
0.00525009437014668,-2.77269384765625
0.00550009886396319,-2.77061987304688
0.0057501033577797,-2.77005078125
0.0060001078515962,-2.76968383789062
0.00625011234541271,-2.76900512695312
0.00650011683922922,-2.77157421875
0.00675012133304573,-2.77157421875
0.00700012582686224,-2.7711337890625
0.00725013032067875,-2.77504272460938
0.00750013481449525,-2.77897021484375
0.00775013930831176,-2.77805249023438
0.00800014380212827,-2.77394165039063
0.00825014829594478,-2.7739599609375
0.00850015278976129,-2.77168432617187
0.0087501572835778,-2.77124389648437
0.0090001617773943,-2.77098681640625
0.00925016627121081,-2.77109692382813
0.00950017076502732,-2.77056469726563
0.00975017525884383,-2.76900512695312
0.0100001797526603,-2.77041796875
0.0102501842464768,-2.77078491210938
0.0105001887402934,-2.77273022460937
0.0107501932341099,-2.77362963867188
0.0110001977279264,-2.77128051757813
0.0112502022217429,-2.77012451171875
0.0115002067155594,-2.76973901367188
0.0117502112093759,-2.77074853515625
0.0120002157031924,-2.77583178710938
0.0122502201970089,-2.77234497070312
0.0125002246908254,-2.77296899414063
0.0127502291846419,-2.7738681640625
0.0130002336784584,-2.7733359375
0.0132502381722749,-2.77150073242187
0.0135002426660915,-2.77517138671875
0.013750247159908,-2.77652905273438
0.0140002516537245,-2.77506127929687
0.014250256147541,-2.77344604492187
0.0145002606413575,-2.77496948242187
0.014750265135174,-2.77155590820312
0.0150002696289905,-2.771849609375
0.015250274122807,-2.77331762695313
0.0155002786166235,-2.773611328125
0.01575028311044,-2.77087670898438
0.0160002876042565,-2.77102368164062
0.0162502920980731,-2.77230810546875
0.0165002965918896,-2.77401513671875
0.0167503010857061,-2.77148266601563
0.0170003055795226,-2.77093188476562
0.0172503100733391,-2.77041796875
0.0175003145671556,-2.7745654296875
0.0177503190609721,-2.77465747070312
0.0180003235547886,-2.77322607421875
0.0182503280486051,-2.7722900390625
0.0185003325424216,-2.772546875
0.0187503370362381,-2.77418017578125
0.0190003415300546,-2.77144580078125
0.0192503460238712,-2.7722900390625
0.0195003505176877,-2.77610693359375
0.0197503550115042,-2.7798876953125
0.0200003595053207,-2.777318359375
0.0202503639991372,-2.77509765625
0.0205003684929537,-2.77326245117187
0.0207503729867702,-2.7698125
0.0210003774805867,-2.7701611328125
0.0212503819744032,-2.771390625
0.0215003864682197,-2.76766528320312
0.0217503909620362,-2.771849609375
0.0220003954558528,-2.77399658203125
0.0222503999496693,-2.77700659179688
0.0225004044434858,-2.7756484375
0.0227504089373023,-2.77429028320313
0.0230004134311188,-2.77568505859375
0.0232504179249353,-2.77522631835937
0.0235004224187518,-2.77102368164062
0.0237504269125683,-2.769353515625
0.0240004314063848,-2.76788549804688
0.0242504359002013,-2.76896826171875
0.0245004403940178,-2.77005078125
0.0247504448878343,-2.77181274414062
0.0250004493816509,-2.77140893554688
0.0252504538754674,-2.769720703125
0.0255004583692839,-2.77118872070313
0.0257504628631004,-2.77419848632813
0.0260004673569169,-2.77225317382812
0.0262504718507334,-2.77278540039062
0.0265004763445499,-2.77109692382813
0.0267504808383664,-2.7685830078125
0.0270004853321829,-2.77115209960937
0.0272504898259994,-2.76907836914063
0.0275004943198159,-2.76894995117188
0.0277504988136324,-2.773244140625
0.028000503307449,-2.77326245117187
0.0282505078012655,-2.771390625
0.028500512295082,-2.77078491210938
0.0287505167888985,-2.7737763671875
0.029000521282715,-2.77585034179687
0.0292505257765315,-2.77698803710937
0.029500530270348,-2.77498754882813
0.0297505347641645,-2.77704296875
0.030000539257981,-2.77867626953125
0.0302505437517975,-2.77561157226563
0.030500548245614,-2.77335424804687
0.0307505527394305,-2.77177612304687
0.0310005572332471,-2.77142749023437
0.0312505617270636,-2.77329931640625
0.0315005662208801,-2.77295068359375
0.0317505707146966,-2.77252856445313
0.0320005752085131,-2.77206982421875
0.0322505797023296,-2.77278540039062
0.0325005841961461,-2.77328100585938
0.0327505886899626,-2.77673095703125
0.0330005931837791,-2.77959423828125
0.0332505976775956,-2.77410668945312
0.0335006021714121,-2.77120703125
0.0337506066652286,-2.77296899414063
0.0340006111590452,-2.77384985351563
0.0342506156528617,-2.77418017578125
0.0345006201466782,-2.7743271484375
0.0347506246404947,-2.77093188476562
0.0350006291343112,-2.77337280273438
0.0352506336281277,-2.774400390625
0.0355006381219442,-2.7687294921875
0.0357506426157607,-2.76395825195313
0.0360006471095772,-2.76612377929687
0.0362506516033937,-2.7653896484375
0.0365006560972102,-2.76726147460937
0.0367506605910267,-2.77173950195313
0.0370006650848433,-2.77173950195313
0.0372506695786598,-2.77074853515625
0.0375006740724763,-2.77017944335938
0.0377506785662928,-2.7739599609375
0.0380006830601093,-2.77930029296875
0.0382506875539258,-2.77625390625
0.0385006920477423,-2.77674951171875
0.0387506965415588,-2.77777709960937
0.0390007010353753,-2.77570336914063
0.0392507055291918,-2.77373974609375
0.0395007100230083,-2.77533642578125
0.0397507145168249,-2.774859375
0.0400007190106414,-2.773244140625
0.0402507235044579,-2.77203295898437
0.0405007279982744,-2.77085864257812
0.0407507324920909,-2.7759970703125
0.0410007369859074,-2.77772216796875
0.0412507414797239,-2.77500610351562
0.0415007459735404,-2.77304223632812
0.0417507504673569,-2.77566674804687
0.0420007549611734,-2.77418017578125
0.0422507594549899,-2.77241821289063
0.0425007639488064,-2.77295068359375
0.042750768442623,-2.77474926757812
0.0430007729364395,-2.77153759765625
0.043250777430256,-2.77142749023437
0.0435007819240725,-2.77100537109375
0.043750786417889,-2.77177612304687
0.0440007909117055,-2.77247338867187
0.044250795405522,-2.77010595703125
0.0445007998993385,-2.770509765625
0.044750804393155,-2.771849609375
0.0450008088869715,-2.76775708007813
0.045250813380788,-2.77326245117187
0.0455008178746045,-2.77652905273438
0.0457508223684211,-2.77504272460938
0.0460008268622376,-2.77194116210937
0.0462508313560541,-2.77085864257812
0.0465008358498706,-2.771390625
0.0467508403436871,-2.76913330078125
0.0470008448375036,-2.76983081054688
0.0472508493313201,-2.7706748046875
0.0475008538251366,-2.77111547851562
0.0477508583189531,-2.7742353515625
0.0480008628127696,-2.77425366210938
0.0482508673065861,-2.77647412109375
0.0485008718004026,-2.7769697265625
0.0487508762942192,-2.77102368164062
0.0490008807880357,-2.77278540039062
0.0492508852818522,-2.77322607421875
0.0495008897756687,-2.77557495117187
0.0497508942694852,-2.7781259765625
0.0500008987633017,-2.77702490234375
0.0502509032571182,-2.7758134765625
0.0505009077509347,-2.77561157226563
0.0507509122447512,-2.77827270507813
0.0510009167385677,-2.77959423828125
0.0512509212323842,-2.7795390625
0.0515009257262008,-2.77741015625
0.0517509302200173,-2.77704296875
0.0520009347138338,-2.77339111328125
0.0522509392076503,-2.77190454101562
0.0525009437014668,-2.77225317382812
0.0527509481952833,-2.77583178710938
0.0530009526890998,-2.77847436523437
0.0532509571829163,-2.77296899414063
0.0535009616767328,-2.77480419921875
0.0537509661705493,-2.77755688476562
0.0540009706643658,-2.77841943359375
0.0542509751581823,-2.7820166015625
0.0545009796519989,-2.7826220703125
0.0547509841458154,-2.78197973632812
0.0550009886396319,-2.78709985351562
0.0552509931334484,-2.78539331054687
0.0555009976272649,-2.78482446289062
0.0557510021210814,-2.78425537109375
0.0560010066148979,-2.78726513671875
0.0562510111087144,-2.78381494140625
0.0565010156025309,-2.77748364257813
0.0567510200963474,-2.77118872070313
0.0570010245901639,-2.76595849609375
0.0572510290839804,-2.76039770507812
0.0575010335777969,-2.76107690429687
0.0577510380716135,-2.7633525390625
0.05800104256543,-2.76946362304687
0.0582510470592465,-2.76871142578125
0.058501051553063,-2.77258374023438
0.0587510560468795,-2.77284033203125
0.059001060540696,-2.77023461914062
0.0592510650345125,-2.77306079101563
0.059501069528329,-2.773611328125
0.0597510740221455,-2.77194116210937
0.060001078515962,-2.77296899414063
0.0602510830097785,-2.77313403320312
0.0605010875035951,-2.77337280273438
0.0607510919974116,-2.77539135742188
0.0610010964912281,-2.77823608398438
0.0612511009850446,-2.77676782226562
0.0615011054788611,-2.77408837890625
0.0617511099726776,-2.77124389648437
0.0620011144664941,-2.76871142578125
0.0622511189603106,-2.76891333007812
0.0625011234541271,-2.76992260742187
0.0627511279479436,-2.77111547851562
0.0630011324417601,-2.772638671875
0.0632511369355767,-2.772638671875
0.0635011414293932,-2.77383154296875
0.0637511459232097,-2.76977563476563
0.0640011504170262,-2.76403149414062
0.0642511549108427,-2.766251953125
0.0645011594046592,-2.77383154296875
0.0647511638984757,-2.77436352539062
0.0650011683922922,-2.77744677734375
0.0652511728861087,-2.77575854492187
0.0655011773799252,-2.77570336914063
0.0657511818737417,-2.777318359375
0.0660011863675583,-2.77764868164062
0.0662511908613748,-2.77296899414063
0.0665011953551913,-2.77179443359375
0.0667511998490078,-2.76968383789062
0.0670012043428243,-2.76893139648437
0.0672512088366408,-2.77056469726563
0.0675012133304573,-2.770509765625
0.0677512178242738,-2.77217993164063
0.0680012223180903,-2.77212475585937
0.0682512268119068,-2.77331762695313
0.0685012313057233,-2.77170263671875
0.0687512357995398,-2.76999584960938
0.0690012402933563,-2.77260205078125
0.0692512447871729,-2.7762724609375
0.0695012492809894,-2.772638671875
0.0697512537748059,-2.77232666015625
0.0700012582686224,-2.7718310546875
0.0702512627624389,-2.77331762695313
0.0705012672562554,-2.77100537109375
0.0707512717500719,-2.77155590820312
0.0710012762438884,-2.77638256835938
0.0712512807377049,-2.77629077148437
0.0715012852315214,-2.77240014648438
0.0717512897253379,-2.76869311523437
0.0720012942191544,-2.7721982421875
0.072251298712971,-2.77544653320312
0.0725013032067875,-2.77243676757812
0.072751307700604,-2.77217993164063
0.0730013121944205,-2.77405151367187
0.073251316688237,-2.77194116210937
0.0735013211820535,-2.77258374023438
0.07375132567587,-2.769115234375
0.0740013301696865,-2.77278540039062
0.074251334663503,-2.77331762695313
0.0745013391573195,-2.77408837890625
0.074751343651136,-2.77427197265625
0.0750013481449525,-2.77061987304688
0.075251352638769,-2.76961059570313
0.0755013571325856,-2.77346435546875
0.0757513616264021,-2.7744736328125
0.0760013661202186,-2.7733359375
0.0762513706140351,-2.77318920898438
0.0765013751078516,-2.77285888671875
0.0767513796016681,-2.7693720703125
0.0770013840954846,-2.76861938476562
0.0772513885893011,-2.7673349609375
0.0775013930831176,-2.7720146484375
0.0777513975769341,-2.77188623046875
0.0780014020707506,-2.76964721679688
0.0782514065645672,-2.76983081054688
0.0785014110583837,-2.76975732421875
0.0787514155522002,-2.77194116210937
0.0790014200460167,-2.77315234375
0.0792514245398332,-2.7700693359375
0.0795014290336497,-2.77335424804687
0.0797514335274662,-2.77074853515625
0.0800014380212827,-2.76986743164063
0.0802514425150992,-2.7723818359375
0.0805014470089157,-2.77230810546875
0.0807514515027322,-2.7759052734375
0.0810014559965487,-2.7779423828125
0.0812514604903653,-2.77425366210938
0.0815014649841818,-2.77755688476562
0.0817514694779983,-2.77878637695312
0.0820014739718148,-2.77840112304688
0.0822514784656313,-2.77702490234375
0.0825014829594478,-2.77755688476562
0.0827514874532643,-2.775556640625
0.0830014919470808,-2.77452880859375
0.0832514964408973,-2.77326245117187
0.0835015009347138,-2.77480419921875
0.0837515054285303,-2.77469409179688
0.0840015099223469,-2.7721982421875
0.0842515144161634,-2.77388647460937
0.0845015189099799,-2.7703447265625
0.0847515234037964,-2.77027124023438
0.0850015278976129,-2.77221655273437
0.0852515323914294,-2.7749326171875
0.0855015368852459,-2.77430859375
0.0857515413790624,-2.76867456054687
0.0860015458728789,-2.77017944335938
0.0862515503666954,-2.77251025390625
0.0865015548605119,-2.77203295898437
0.0867515593543284,-2.769904296875
0.0870015638481449,-2.771666015625
0.0872515683419615,-2.77236328125
0.087501572835778,-2.77350122070313
0.0877515773295945,-2.77217993164063
0.088001581823411,-2.77551977539063
0.0882515863172275,-2.77630908203125
0.088501590811044,-2.77109692382813
0.0887515953048605,-2.76994091796875
0.089001599798677,-2.77027124023438
0.0892516042924935,-2.77065673828125
0.08950160878631,-2.77159252929687
0.0897516132801265,-2.77434545898437
0.0900016177739431,-2.773005859375
0.0902516222677596,-2.77267529296875
0.0905016267615761,-2.77234497070312
0.0907516312553926,-2.77197802734375
0.0910016357492091,-2.77463916015625
0.0912516402430256,-2.77407006835938
0.0915016447368421,-2.77128051757813
0.0917516492306586,-2.76790380859375
0.0920016537244751,-2.77091357421875
0.0922516582182916,-2.77036279296875
0.0925016627121081,-2.77128051757813
0.0927516672059246,-2.7700693359375
0.0930016716997412,-2.77131713867188
0.0932516761935577,-2.7741435546875
0.0935016806873742,-2.777134765625
0.0937516851811907,-2.77529956054688
0.0940016896750072,-2.7748408203125
0.0942516941688237,-2.77676782226562
0.0945016986626402,-2.77612548828125
0.0947517031564567,-2.77179443359375
0.0950017076502732,-2.771849609375
0.0952517121440897,-2.77054663085937
0.0955017166379062,-2.7721064453125
0.0957517211317228,-2.7730791015625
0.0960017256255393,-2.77091357421875
0.0962517301193558,-2.7703447265625
0.0965017346131723,-2.76931689453125
0.0967517391069888,-2.7718310546875
0.0970017436008053,-2.77028955078125
0.0972517480946218,-2.77117065429688
0.0975017525884383,-2.77441870117188
0.0977517570822548,-2.773244140625
0.0980017615760713,-2.77344604492187
0.0982517660698878,-2.77372143554688
0.0985017705637043,-2.77489575195312
0.0987517750575208,-2.77416186523438
0.0990017795513374,-2.77539135742188
0.0992517840451539,-2.77585034179687
0.0995017885389704,-2.7744736328125
0.0997517930327869,-2.77274877929688
0.100001797526603,-2.77087670898438
0.10025180202042,-2.77071166992187
0.100501806514236,-2.77373974609375
0.100751811008053,-2.77232666015625
0.101001815501869,-2.77194116210937
0.101251819995686,-2.77403344726563
0.101501824489502,-2.77544653320312
0.101751828983319,-2.77524462890625
0.102001833477135,-2.77500610351562
0.102251837970952,-2.773794921875
0.102501842464768,-2.77027124023438
0.102751846958585,-2.76753686523438
0.103001851452402,-2.7682158203125
0.103251855946218,-2.76920678710938
0.103501860440035,-2.76707788085937
0.103751864933851,-2.7672431640625
0.104001869427668,-2.76977563476563
0.104251873921484,-2.77109692382813
0.104501878415301,-2.76845434570312
0.104751882909117,-2.76955541992188
0.105001887402934,-2.76832592773438
0.10525189189675,-2.76964721679688
0.105501896390567,-2.76995922851563
0.105751900884383,-2.77146411132812
0.1060019053782,-2.77036279296875
0.106251909872016,-2.76986743164063
0.106501914365833,-2.7706015625
0.106751918859649,-2.7681240234375
0.107001923353466,-2.76713305664062
0.107251927847282,-2.76683935546875
0.107501932341099,-2.76766528320312
0.107751936834915,-2.76735327148437
0.108001941328732,-2.76907836914063
0.108251945822548,-2.77010595703125
0.108501950316365,-2.77388647460937
0.108751954810181,-2.77489575195312
0.109001959303998,-2.77781396484375
0.109251963797814,-2.77709814453125
0.109501968291631,-2.77287719726562
0.109751972785447,-2.7722900390625
0.110001977279264,-2.77436352539062
0.11025198177308,-2.77471240234375
0.110501986266897,-2.77087670898438
0.110751990760713,-2.77041796875
0.11100199525453,-2.77315234375
0.111251999748346,-2.77188623046875
0.111502004242163,-2.76964721679688
0.111752008735979,-2.77177612304687
0.112002013229796,-2.77273022460937
0.112252017723612,-2.77337280273438
0.112502022217429,-2.77350122070313
0.112752026711245,-2.77594189453125
0.113002031205062,-2.77830932617187
0.113252035698878,-2.77296899414063
0.113502040192695,-2.7693720703125
0.113752044686511,-2.77146411132812
0.114002049180328,-2.77645581054687
0.114252053674144,-2.77768530273437
0.114502058167961,-2.77735498046875
0.114752062661777,-2.7750244140625
0.115002067155594,-2.77364794921875
0.11525207164941,-2.77465747070312
0.115502076143227,-2.77755688476562
0.115752080637043,-2.77407006835938
0.11600208513086,-2.77895166015625
0.116252089624676,-2.77517138671875
0.116502094118493,-2.77258374023438
0.116752098612309,-2.77241821289063
0.117002103106126,-2.77036279296875
0.117252107599942,-2.77344604492187
0.117502112093759,-2.77535473632812
0.117752116587575,-2.77443725585937
0.118002121081392,-2.77394165039063
0.118252125575209,-2.77350122070313
0.118502130069025,-2.77388647460937
0.118752134562842,-2.7760888671875
0.119002139056658,-2.77401513671875
0.119252143550475,-2.77335424804687
0.119502148044291,-2.77467553710937
0.119752152538108,-2.77342797851562
0.120002157031924,-2.77177612304687
0.120252161525741,-2.77331762695313
0.120502166019557,-2.77539135742188
0.120752170513374,-2.77058325195312
0.12100217500719,-2.77216162109375
0.121252179501007,-2.77260205078125
0.121502183994823,-2.77005078125
0.12175218848864,-2.77084008789063
0.122002192982456,-2.77451049804688
0.122252197476273,-2.77827270507813
0.122502201970089,-2.77496948242187
0.122752206463906,-2.77197802734375
0.123002210957722,-2.7736845703125
0.123252215451539,-2.77350122070313
0.123502219945355,-2.773703125
0.123752224439172,-2.77008764648438
0.124002228932988,-2.76904150390625
0.124252233426805,-2.7731708984375
0.124502237920621,-2.77405151367187
0.124752242414438,-2.77364794921875
0.125002246908254,-2.772546875
0.125252251402071,-2.77335424804687
0.125502255895887,-2.77384985351563
0.125752260389704,-2.77355615234375
0.12600226488352,-2.770693359375
0.126252269377337,-2.77390502929688
0.126502273871153,-2.77282202148437
0.12675227836497,-2.77115209960937
0.127002282858786,-2.77267529296875
0.127252287352603,-2.772546875
0.127502291846419,-2.77474926757812
0.127752296340236,-2.77895166015625
0.128002300834052,-2.77524462890625
0.128252305327869,-2.77498754882813
0.128502309821685,-2.77764868164062
0.128752314315502,-2.77359301757813
0.129002318809318,-2.77096875
0.129252323303135,-2.77047290039062
0.129502327796951,-2.76553637695313
0.129752332290768,-2.7671513671875
0.130002336784584,-2.77373974609375
0.130252341278401,-2.769537109375
0.130502345772217,-2.76573828125
0.130752350266034,-2.7681240234375
0.13100235475985,-2.766802734375
0.131252359253667,-2.76790380859375
0.131502363747483,-2.7687294921875
0.1317523682413,-2.7671513671875
0.132002372735117,-2.76940869140625
0.132252377228933,-2.77225317382812
0.13250238172275,-2.77146411132812
0.132752386216566,-2.77150073242187
0.133002390710383,-2.77276708984375
0.133252395204199,-2.76907836914063
0.133502399698016,-2.76504077148437
0.133752404191832,-2.7632607421875
0.134002408685649,-2.76630712890625
0.134252413179465,-2.7674267578125
0.134502417673282,-2.76691284179687
0.134752422167098,-2.76788549804688
0.135002426660915,-2.76854614257813
0.135252431154731,-2.77418017578125
0.135502435648548,-2.773005859375
0.135752440142364,-2.77348291015625
0.136002444636181,-2.77585034179687
0.136252449129997,-2.77647412109375
0.136502453623814,-2.77880493164063
0.13675245811763,-2.77994262695313
0.137002462611447,-2.77919018554688
0.137252467105263,-2.77860302734375
0.13750247159908,-2.77869482421875
0.137752476092896,-2.77841943359375
0.138002480586713,-2.779263671875
0.138252485080529,-2.77941040039063
0.138502489574346,-2.78073168945313
0.138752494068162,-2.77733666992187
0.139002498561979,-2.7737763671875
0.139252503055795,-2.7742353515625
0.139502507549612,-2.772546875
0.139752512043428,-2.77195971679688
0.140002516537245,-2.7729140625
0.140252521031061,-2.76962890625
0.140502525524878,-2.77478564453125
0.140752530018694,-2.77573999023438
0.141002534512511,-2.76902319335937
0.141252539006327,-2.77041796875
0.141502543500144,-2.77520776367188
0.14175254799396,-2.77904345703125
0.142002552487777,-2.78258544921875
0.142252556981593,-2.78234692382813
0.14250256147541,-2.77816259765625
0.142752565969226,-2.77001440429687
0.143002570463043,-2.77012451171875
0.143252574956859,-2.77038134765625
0.143502579450676,-2.77388647460937
0.143752583944492,-2.772546875
0.144002588438309,-2.76766528320312
0.144252592932125,-2.76876635742188
0.144502597425942,-2.7692802734375
0.144752601919758,-2.7758134765625
0.145002606413575,-2.778658203125
0.145252610907391,-2.7756298828125
0.145502615401208,-2.7751162109375
0.145752619895024,-2.77656591796875
0.146002624388841,-2.77295068359375
0.146252628882657,-2.77295068359375
0.146502633376474,-2.77234497070312
0.14675263787029,-2.77221655273437
0.147002642364107,-2.76660083007812
0.147252646857924,-2.77045483398437
0.14750265135174,-2.77293212890625
0.147752655845557,-2.77216162109375
0.148002660339373,-2.7739599609375
0.14825266483319,-2.77434545898437
0.148502669327006,-2.769904296875
0.148752673820823,-2.769537109375
0.149002678314639,-2.77535473632812
0.149252682808456,-2.7760888671875
0.149502687302272,-2.7750244140625
0.149752691796089,-2.77153759765625
0.150002696289905,-2.7730791015625
0.150252700783722,-2.77630908203125
0.150502705277538,-2.778658203125
0.150752709771355,-2.77280395507813
0.151002714265171,-2.7707666015625
0.151252718758988,-2.76845434570312
0.151502723252804,-2.7707666015625
0.151752727746621,-2.77434545898437
0.152002732240437,-2.77322607421875
0.152252736734254,-2.77304223632812
0.15250274122807,-2.77023461914062
0.152752745721887,-2.76834423828125
0.153002750215703,-2.76950048828125
0.15325275470952,-2.7703447265625
0.153502759203336,-2.769537109375
0.153752763697153,-2.77140893554688
0.154002768190969,-2.77342797851562
0.154252772684786,-2.77366625976562
0.154502777178602,-2.77258374023438
0.154752781672419,-2.7719228515625
0.155002786166235,-2.773703125
0.155252790660052,-2.77137255859375
0.155502795153868,-2.76931689453125
0.155752799647685,-2.76594018554687
0.156002804141501,-2.76885815429688
0.156252808635318,-2.77061987304688
0.156502813129134,-2.76968383789062
0.156752817622951,-2.769720703125
0.157002822116767,-2.7694453125
0.157252826610584,-2.77258374023438
0.1575028311044,-2.77212475585937
0.157752835598217,-2.77362963867188
0.158002840092033,-2.77115209960937
0.15825284458585,-2.77293212890625
0.158502849079666,-2.77482250976563
0.158752853573483,-2.77350122070313
0.159002858067299,-2.77498754882813
0.159252862561116,-2.77168432617187
0.159502867054932,-2.77061987304688
0.159752871548749,-2.77072998046875
0.160002876042565,-2.7721064453125
0.160252880536382,-2.770693359375
0.160502885030198,-2.76784887695313
0.160752889524015,-2.77278540039062
0.161002894017831,-2.772546875
0.161252898511648,-2.7738681640625
0.161502903005464,-2.77401513671875
0.161752907499281,-2.77436352539062
0.162002911993097,-2.7721982421875
0.162252916486914,-2.77216162109375
0.162502920980731,-2.77717163085938
0.162752925474547,-2.77282202148437
0.163002929968364,-2.77054663085937
0.16325293446218,-2.77146411132812
0.163502938955997,-2.77309741210937
0.163752943449813,-2.77302416992188
0.16400294794363,-2.77355615234375
0.164252952437446,-2.77443725585937
0.164502956931263,-2.77179443359375
0.164752961425079,-2.77570336914063
0.165002965918896,-2.77148266601563
0.165252970412712,-2.77273022460937
0.165502974906529,-2.77260205078125
0.165752979400345,-2.77355615234375
0.166002983894162,-2.774400390625
0.166252988387978,-2.77320751953125
0.166502992881795,-2.7745654296875
0.166752997375611,-2.77542822265625
0.167003001869428,-2.772546875
0.167253006363244,-2.76845434570312
0.167503010857061,-2.77038134765625
0.167753015350877,-2.77142749023437
0.168003019844694,-2.767775390625
0.16825302433851,-2.76973901367188
0.168503028832327,-2.7691884765625
0.168753033326143,-2.76852783203125
0.16900303781996,-2.7706015625
0.169253042313776,-2.76784887695313
0.169503046807593,-2.76906005859375
0.169753051301409,-2.76860131835938
0.170003055795226,-2.76808740234375
0.170253060289042,-2.77273022460937
0.170503064782859,-2.77704296875
0.170753069276675,-2.77827270507813
0.171003073770492,-2.77397827148438
0.171253078264308,-2.7744736328125
0.171503082758125,-2.77392333984375
0.171753087251941,-2.77388647460937
0.172003091745758,-2.77221655273437
0.172253096239574,-2.77072998046875
0.172503100733391,-2.76968383789062
0.172753105227207,-2.76867456054687
0.173003109721024,-2.77546484375
0.17325311421484,-2.77346435546875
0.173503118708657,-2.774583984375
0.173753123202473,-2.77689624023437
0.17400312769629,-2.7718310546875
0.174253132190106,-2.76962890625
0.174503136683923,-2.76656396484375
0.174753141177739,-2.77027124023438
0.175003145671556,-2.7742353515625
0.175253150165372,-2.77082177734375
0.175503154659189,-2.7674267578125
0.175753159153005,-2.77170263671875
0.176003163646822,-2.76772021484375
0.176253168140638,-2.76832592773438
0.176503172634455,-2.7729140625
0.176753177128272,-2.77777709960937
0.177003181622088,-2.77768530273437
0.177253186115905,-2.77489575195312
0.177503190609721,-2.77098681640625
0.177753195103538,-2.77247338867187
0.178003199597354,-2.77285888671875
0.178253204091171,-2.771390625
0.178503208584987,-2.7721064453125
0.178753213078804,-2.76827099609375
0.17900321757262,-2.76994091796875
0.179253222066437,-2.7712255859375
0.179503226560253,-2.76808740234375
0.17975323105407,-2.769537109375
0.180003235547886,-2.77120703125
0.180253240041703,-2.77322607421875
0.180503244535519,-2.76876635742188
0.180753249029336,-2.77072998046875
0.181003253523152,-2.77700659179688
0.181253258016969,-2.77326245117187
0.181503262510785,-2.77251025390625
0.181753267004602,-2.77553833007812
0.182003271498418,-2.77964916992187
0.182253275992235,-2.77841943359375
0.182503280486051,-2.7744736328125
0.182753284979868,-2.77438208007813
0.183003289473684,-2.77273022460937
0.183253293967501,-2.77230810546875
0.183503298461317,-2.77093188476562
0.183753302955134,-2.7662705078125
0.18400330744895,-2.76917016601563
0.184253311942767,-2.76946362304687
0.184503316436583,-2.76834423828125
0.1847533209304,-2.76454541015625
0.185003325424216,-2.76496752929688
0.185253329918033,-2.76770190429687
0.185503334411849,-2.76783032226562
0.185753338905666,-2.76955541992188
0.186003343399482,-2.77197802734375
0.186253347893299,-2.77230810546875
0.186503352387115,-2.77320751953125
0.186753356880932,-2.77302416992188
0.187003361374748,-2.7700693359375
0.187253365868565,-2.77014282226562
0.187503370362381,-2.77495092773438
0.187753374856198,-2.77638256835938
0.188003379350014,-2.76992260742187
0.188253383843831,-2.76830737304687
0.188503388337647,-2.77342797851562
0.188753392831464,-2.77153759765625
0.18900339732528,-2.7668759765625
0.189253401819097,-2.76612377929687
0.189503406312913,-2.7671513671875
0.18975341080673,-2.7687294921875
0.190003415300546,-2.7688212890625
0.190253419794363,-2.7698125
0.190503424288179,-2.77410668945312
0.190753428781996,-2.77342797851562
0.191003433275812,-2.77072998046875
0.191253437769629,-2.76946362304687
0.191503442263446,-2.7673349609375
0.191753446757262,-2.76792211914062
0.192003451251079,-2.76955541992188
0.192253455744895,-2.77212475585937
0.192503460238712,-2.7710419921875
0.192753464732528,-2.77168432617187
0.193003469226345,-2.77179443359375
0.193253473720161,-2.77118872070313
0.193503478213978,-2.772546875
0.193753482707794,-2.774767578125
0.194003487201611,-2.77306079101563
0.194253491695427,-2.77350122070313
0.194503496189244,-2.77416186523438
0.19475350068306,-2.77507934570313
0.195003505176877,-2.77251025390625
0.195253509670693,-2.77212475585937
0.19550351416451,-2.77454736328125
0.195753518658326,-2.77649267578125
0.196003523152143,-2.78056665039062
0.196253527645959,-2.78168603515625
0.196503532139776,-2.77856640625
0.196753536633592,-2.77816259765625
0.197003541127409,-2.78073168945313
0.197253545621225,-2.77963061523438
0.197503550115042,-2.77753881835938
0.197753554608858,-2.77337280273438
0.198003559102675,-2.77133569335937
0.198253563596491,-2.771666015625
0.198503568090308,-2.77612548828125
0.198753572584124,-2.777501953125
0.199003577077941,-2.779263671875
0.199253581571757,-2.77981420898438
0.199503586065574,-2.77911694335938
0.19975359055939,-2.77586865234375
0.200003595053207,-2.77441870117188
0.200253599547023,-2.77819921875
0.20050360404084,-2.78106225585937
0.200753608534656,-2.77707983398437
0.201003613028473,-2.77480419921875
0.201253617522289,-2.77445556640625
0.201503622016106,-2.77109692382813
0.201753626509922,-2.76977563476563
0.202003631003739,-2.77296899414063
0.202253635497555,-2.773005859375
0.202503639991372,-2.77027124023438
0.202753644485188,-2.7667109375
0.203003648979005,-2.766802734375
0.203253653472821,-2.76878466796875
0.203503657966638,-2.76792211914062
0.203753662460454,-2.76900512695312
0.204003666954271,-2.77232666015625
0.204253671448087,-2.7719228515625
0.204503675941904,-2.77755688476562
0.20475368043572,-2.78142944335938
0.205003684929537,-2.78126391601563
0.205253689423353,-2.783154296875
0.20550369391717,-2.78225512695313
0.205753698410987,-2.78320922851562
0.206003702904803,-2.78240185546875
0.20625370739862,-2.78353979492188
0.206503711892436,-2.7783828125
0.206753716386253,-2.7728955078125
0.207003720880069,-2.76494921875
0.207253725373886,-2.75553466796875
0.207503729867702,-2.7527451171875
0.207753734361519,-2.75685595703125
0.208003738855335,-2.7611318359375
0.208253743349152,-2.76542651367187
0.208503747842968,-2.7630771484375
0.208753752336785,-2.76063647460937
0.209003756830601,-2.7662705078125
0.209253761324418,-2.76645385742188
0.209503765818234,-2.76571997070312
0.209753770312051,-2.76702294921875
0.210003774805867,-2.76799536132813
0.210253779299684,-2.76738989257812
0.2105037837935,-2.766619140625
0.210753788287317,-2.76419653320312
0.211003792781133,-2.76315063476562
0.21125379727495,-2.76738989257812
0.211503801768766,-2.76118701171875
0.211753806262583,-2.75997583007813
0.212003810756399,-2.76300390625
0.212253815250216,-2.76579345703125
0.212503819744032,-2.76443530273438
0.212753824237849,-2.76461865234375
0.213003828731665,-2.76597680664063
0.213253833225482,-2.7701611328125
0.213503837719298,-2.7721064453125
0.213753842213115,-2.766802734375
0.214003846706931,-2.76500439453125
0.214253851200748,-2.7706748046875
0.214503855694564,-2.7749326171875
0.214753860188381,-2.77388647460937
0.215003864682197,-2.77407006835938
0.215253869176014,-2.77399658203125
0.21550387366983,-2.77537329101563
0.215753878163647,-2.77630908203125
0.216003882657463,-2.776712890625
0.21625388715128,-2.77473071289063
0.216503891645096,-2.77682299804688
0.216753896138913,-2.77730004882812
0.217003900632729,-2.77695141601563
0.217253905126546,-2.77399658203125
0.217503909620362,-2.77074853515625
0.217753914114179,-2.77199633789062
0.218003918607995,-2.77524462890625
0.218253923101812,-2.774859375
0.218503927595628,-2.77586865234375
0.218753932089445,-2.7729140625
0.219003936583261,-2.7699775390625
0.219253941077078,-2.76711474609375
0.219503945570894,-2.77206982421875
0.219753950064711,-2.77168432617187
0.220003954558527,-2.77038134765625
0.220253959052344,-2.76683935546875
0.220503963546161,-2.76586669921875
0.220753968039977,-2.77041796875
0.221003972533794,-2.77276708984375
0.22125397702761,-2.77287719726562
0.221503981521427,-2.77137255859375
0.221753986015243,-2.77155590820312
0.22200399050906,-2.77084008789063
0.222253995002876,-2.76931689453125
0.222503999496693,-2.77128051757813
0.222754003990509,-2.77441870117188
0.223004008484326,-2.77058325195312
0.223254012978142,-2.767408203125
0.223504017471959,-2.76526098632813
0.223754021965775,-2.77093188476562
0.224004026459592,-2.7759052734375
0.224254030953408,-2.7762724609375
0.224504035447225,-2.77621728515625
0.224754039941041,-2.777318359375
0.225004044434858,-2.77814428710938
0.225254048928674,-2.77768530273437
0.225504053422491,-2.77540966796875
0.225754057916307,-2.776345703125
0.226004062410124,-2.7759052734375
0.22625406690394,-2.7751162109375
0.226504071397757,-2.78095190429688
0.226754075891573,-2.7790068359375
0.22700408038539,-2.77759375
0.227254084879206,-2.77695141601563
0.227504089373023,-2.773244140625
0.227754093866839,-2.77340942382813
0.228004098360656,-2.77005078125
0.228254102854472,-2.77126220703125
0.228504107348289,-2.77241821289063
0.228754111842105,-2.7700693359375
0.229004116335922,-2.76672924804687
0.229254120829738,-2.77126220703125
0.229504125323555,-2.77383154296875
0.229754129817371,-2.7754833984375
0.230004134311188,-2.77280395507813
0.230254138805004,-2.7700693359375
0.230504143298821,-2.77318920898438
0.230754147792637,-2.77438208007813
0.231004152286454,-2.77384985351563
0.23125415678027,-2.77553833007812
0.231504161274087,-2.7748408203125
0.231754165767903,-2.7760888671875
0.23200417026172,-2.77652905273438
0.232254174755536,-2.77796069335938
0.232504179249353,-2.77909838867187
0.232754183743169,-2.773703125
0.233004188236986,-2.77269384765625
0.233254192730802,-2.77733666992187
0.233504197224619,-2.77596044921875
0.233754201718435,-2.77342797851562
0.234004206212252,-2.7698125
0.234254210706068,-2.77140893554688
0.234504215199885,-2.77315234375
0.234754219693701,-2.77203295898437
0.235004224187518,-2.77120703125
0.235254228681334,-2.77392333984375
0.235504233175151,-2.77401513671875
0.235754237668967,-2.771849609375
0.236004242162784,-2.7706015625
0.236254246656601,-2.77212475585937
0.236504251150417,-2.77473071289063
0.236754255644234,-2.77763037109375
0.23700426013805,-2.77287719726562
0.237254264631867,-2.77179443359375
0.237504269125683,-2.77546484375
0.2377542736195,-2.77241821289063
0.238004278113316,-2.77155590820312
0.238254282607133,-2.77271215820313
0.238504287100949,-2.77401513671875
0.238754291594766,-2.77577685546875
0.239004296088582,-2.77520776367188
0.239254300582399,-2.77524462890625
0.239504305076215,-2.77718994140625
0.239754309570032,-2.77491430664063
0.240004314063848,-2.77302416992188
0.240254318557665,-2.77546484375
0.240504323051481,-2.77342797851562
0.240754327545298,-2.77515283203125
0.241004332039114,-2.77351953125
0.241254336532931,-2.77008764648438
0.241504341026747,-2.77216162109375
0.241754345520564,-2.77065673828125
0.24200435001438,-2.771298828125
0.242254354508197,-2.76966552734375
0.242504359002013,-2.77452880859375
0.24275436349583,-2.77172094726562
0.243004367989646,-2.77203295898437
0.243254372483463,-2.77107861328125
0.243504376977279,-2.77161083984375
0.243754381471096,-2.77155590820312
0.244004385964912,-2.77241821289063
0.244254390458729,-2.76950048828125
0.244504394952545,-2.7717578125
0.244754399446362,-2.77074853515625
0.245004403940178,-2.77164770507812
0.245254408433995,-2.77065673828125
0.245504412927811,-2.76836254882812
0.245754417421628,-2.77100537109375
0.246004421915444,-2.77137255859375
0.246254426409261,-2.76887646484375
0.246504430903077,-2.77063842773437
0.246754435396894,-2.7718310546875
0.24700443989071,-2.76973901367188
0.247254444384527,-2.76674780273438
0.247504448878343,-2.7608017578125
0.24775445337216,-2.7648388671875
0.248004457865976,-2.76683935546875
0.248254462359793,-2.7672431640625
0.248504466853609,-2.76702294921875
0.248754471347426,-2.76915161132812
0.249004475841242,-2.77306079101563
0.249254480335059,-2.77313403320312
0.249504484828875,-2.7692802734375
0.249754489322692,-2.77032641601562
0.250004493816508,-2.7757216796875
0.250254498310325,-2.77717163085938
0.250504502804141,-2.77337280273438
0.250754507297958,-2.77118872070313
0.251004511791775,-2.77063842773437
0.251254516285591,-2.773611328125
0.251504520779408,-2.77596044921875
0.251754525273224,-2.77462060546875
0.252004529767041,-2.773244140625
0.252254534260857,-2.76768359375
0.252504538754674,-2.77181274414062
0.25275454324849,-2.7768046875
0.253004547742307,-2.777318359375
0.253254552236123,-2.7733359375
0.25350455672994,-2.77616235351563
0.253754561223756,-2.77718994140625
0.254004565717573,-2.7736845703125
0.254254570211389,-2.76939038085938
0.254504574705206,-2.77032641601562
0.254754579199022,-2.772546875
0.255004583692839,-2.76737182617188
0.255254588186655,-2.76942724609375
0.255504592680472,-2.77372143554688
0.255754597174288,-2.7699775390625
0.256004601668105,-2.77206982421875
0.256254606161921,-2.77902514648438
0.256504610655738,-2.77972241210938
0.256754615149554,-2.77504272460938
0.257004619643371,-2.7762724609375
0.257254624137187,-2.77654760742187
0.257504628631004,-2.77434545898437
0.25775463312482,-2.77328100585938
0.258004637618637,-2.77273022460937
0.258254642112453,-2.7722900390625
0.25850464660627,-2.77416186523438
0.258754651100086,-2.77061987304688
0.259004655593903,-2.77001440429687
0.259254660087719,-2.77625390625
0.259504664581536,-2.77654760742187
0.259754669075352,-2.77491430664063
0.260004673569169,-2.771849609375
0.260254678062985,-2.77091357421875
0.260504682556802,-2.77212475585937
0.260754687050618,-2.77142749023437
0.261004691544435,-2.77707983398437
0.261254696038251,-2.77860302734375
0.261504700532068,-2.77702490234375
0.261754705025884,-2.7723818359375
0.262004709519701,-2.77128051757813
0.262254714013517,-2.77217993164063
0.262504718507334,-2.77140893554688
0.26275472300115,-2.7699775390625
0.263004727494967,-2.77322607421875
0.263254731988783,-2.77469409179688
0.2635047364826,-2.76975732421875
0.263754740976416,-2.7671513671875
0.264004745470233,-2.769904296875
0.26425474996405,-2.77052807617188
0.264504754457866,-2.76931689453125
0.264754758951682,-2.77039965820313
0.265004763445499,-2.7706748046875
0.265254767939316,-2.7743271484375
0.265504772433132,-2.77612548828125
0.265754776926949,-2.77137255859375
0.266004781420765,-2.76962890625
0.266254785914582,-2.77199633789062
0.266504790408398,-2.77155590820312
0.266754794902215,-2.7722900390625
0.267004799396031,-2.7721982421875
0.267254803889848,-2.7692802734375
0.267504808383664,-2.77161083984375
0.267754812877481,-2.77173950195313
0.268004817371297,-2.77322607421875
0.268254821865114,-2.77403344726563
0.26850482635893,-2.77008764648438
0.268754830852747,-2.77005078125
0.269004835346563,-2.77161083984375
0.26925483984038,-2.7723818359375
0.269504844334196,-2.77179443359375
0.269754848828013,-2.77315234375
0.270004853321829,-2.77206982421875
0.270254857815646,-2.77111547851562
0.270504862309462,-2.76994091796875
0.270754866803279,-2.77082177734375
0.271004871297095,-2.771666015625
0.271254875790912,-2.77072998046875
0.271504880284728,-2.77306079101563
0.271754884778545,-2.77265698242187
0.272004889272361,-2.77072998046875
0.272254893766178,-2.77074853515625
0.272504898259994,-2.76847265625
0.272754902753811,-2.77087670898438
0.273004907247627,-2.77155590820312
0.273254911741444,-2.76924340820312
0.27350491623526,-2.76705981445313
0.273754920729077,-2.77153759765625
0.274004925222893,-2.77137255859375
0.27425492971671,-2.77342797851562
0.274504934210526,-2.77654760742187
0.274754938704343,-2.77005078125
0.275004943198159,-2.76694970703125
0.275254947691976,-2.76757348632812
0.275504952185792,-2.76817919921875
0.275754956679609,-2.76770190429687
0.276004961173425,-2.77124389648437
0.276254965667242,-2.7687294921875
0.276504970161058,-2.76924340820312
0.276754974654875,-2.7711337890625
0.277004979148691,-2.77273022460937
0.277254983642508,-2.76995922851563
0.277504988136324,-2.77054663085937
0.277754992630141,-2.77144580078125
0.278004997123957,-2.77137255859375
0.278255001617774,-2.76913330078125
0.27850500611159,-2.77221655273437
0.278755010605407,-2.77216162109375
0.279005015099223,-2.77164770507812
0.27925501959304,-2.770693359375
0.279505024086857,-2.77003271484375
0.279755028580673,-2.77249194335938
0.28000503307449,-2.77315234375
0.280255037568306,-2.7706015625
0.280505042062123,-2.76878466796875
0.280755046555939,-2.76788549804688
0.281005051049756,-2.77528149414062
0.281255055543572,-2.77241821289063
0.281505060037389,-2.77023461914062
0.281755064531205,-2.7738681640625
0.282005069025022,-2.77704296875
0.282255073518838,-2.77392333984375
0.282505078012655,-2.77551977539063
0.282755082506471,-2.779447265625
0.283005087000288,-2.78135571289063
0.283255091494104,-2.77959423828125
0.283505095987921,-2.78019970703125
0.283755100481737,-2.7799794921875
0.284005104975554,-2.7759052734375
0.28425510946937,-2.7756484375
0.284505113963187,-2.77674951171875
0.284755118457003,-2.77720825195312
0.28500512295082,-2.7741435546875
0.285255127444636,-2.76902319335937
0.285505131938453,-2.77120703125
0.285755136432269,-2.77065673828125
0.286005140926086,-2.77137255859375
0.286255145419902,-2.77252856445313
0.286505149913719,-2.77478564453125
0.286755154407535,-2.77489575195312
0.287005158901352,-2.77313403320312
0.287255163395168,-2.773244140625
0.287505167888985,-2.77188623046875
0.287755172382801,-2.773005859375
0.288005176876618,-2.77313403320312
0.288255181370434,-2.77394165039063
0.288505185864251,-2.77460229492188
0.288755190358067,-2.77023461914062
0.289005194851884,-2.76801391601562
0.2892551993457,-2.77463916015625
0.289505203839517,-2.77441870117188
0.289755208333333,-2.77052807617188
0.29000521282715,-2.76691284179687
0.290255217320966,-2.767775390625
0.290505221814783,-2.77063842773437
0.290755226308599,-2.77223486328125
0.291005230802416,-2.770693359375
0.291255235296232,-2.7717578125
0.291505239790049,-2.77662084960938
0.291755244283865,-2.77588696289062
0.292005248777682,-2.77170263671875
0.292255253271498,-2.773794921875
0.292505257765315,-2.77460229492188
0.292755262259131,-2.77032641601562
0.293005266752948,-2.76896826171875
0.293255271246764,-2.76711474609375
0.293505275740581,-2.7711337890625
0.293755280234397,-2.77146411132812
0.294005284728214,-2.76256323242188
0.29425528922203,-2.76559155273437
0.294505293715847,-2.77304223632812
0.294755298209664,-2.7706748046875
0.29500530270348,-2.769115234375
0.295255307197297,-2.77313403320312
0.295505311691113,-2.76946362304687
0.29575531618493,-2.77041796875
0.296005320678746,-2.7717578125
0.296255325172563,-2.77445556640625
0.296505329666379,-2.77471240234375
0.296755334160196,-2.77017944335938
0.297005338654012,-2.76830737304687
0.297255343147829,-2.77054663085937
0.297505347641645,-2.7698857421875
0.297755352135462,-2.76845434570312
0.298005356629278,-2.76983081054688
0.298255361123095,-2.77052807617188
0.298505365616911,-2.771060546875
0.298755370110728,-2.77195971679688
0.299005374604544,-2.7744736328125
0.299255379098361,-2.77397827148438
0.299505383592177,-2.77551977539063
0.299755388085994,-2.77214306640625
0.30000539257981,-2.77616235351563
0.300255397073627,-2.77902514648438
0.300505401567443,-2.77823608398438
0.30075540606126,-2.773005859375
0.301005410555076,-2.77337280273438
0.301255415048893,-2.77496948242187
0.301505419542709,-2.77410668945312
0.301755424036526,-2.77372143554688
0.302005428530342,-2.77722680664063
0.302255433024159,-2.77407006835938
0.302505437517975,-2.77640087890625
0.302755442011792,-2.77542822265625
0.303005446505608,-2.77551977539063
0.303255450999425,-2.77500610351562
0.303505455493241,-2.77577685546875
0.303755459987058,-2.77597875976562
0.304005464480874,-2.772638671875
0.304255468974691,-2.77028955078125
0.304505473468507,-2.7694453125
0.304755477962324,-2.77265698242187
0.30500548245614,-2.77054663085937
0.305255486949957,-2.77172094726562
0.305505491443773,-2.77118872070313
0.30575549593759,-2.76926171875
0.306005500431406,-2.76968383789062
0.306255504925223,-2.7700693359375
0.306505509419039,-2.7742353515625
0.306755513912856,-2.774859375
0.307005518406672,-2.7698125
0.307255522900489,-2.77109692382813
0.307505527394305,-2.76986743164063
0.307755531888122,-2.77159252929687
0.308005536381938,-2.76900512695312
0.308255540875755,-2.76806909179688
0.308505545369571,-2.77082177734375
0.308755549863388,-2.77014282226562
0.309005554357205,-2.7687294921875
0.309255558851021,-2.77388647460937
0.309505563344838,-2.77474926757812
0.309755567838654,-2.77313403320312
0.310005572332471,-2.77335424804687
0.310255576826287,-2.77383154296875
0.310505581320104,-2.77557495117187
0.31075558581392,-2.77274877929688
0.311005590307737,-2.774859375
0.311255594801553,-2.77177612304687
0.31150559929537,-2.77142749023437
0.311755603789186,-2.77241821289063
0.312005608283003,-2.76955541992188
0.312255612776819,-2.7698125
0.312505617270636,-2.77621728515625
0.312755621764452,-2.7748408203125
0.313005626258269,-2.7723818359375
0.313255630752085,-2.7739599609375
0.313505635245902,-2.77102368164062
0.313755639739718,-2.76966552734375
0.314005644233535,-2.7730791015625
0.314255648727351,-2.77282202148437
0.314505653221168,-2.77337280273438
0.314755657714984,-2.7710419921875
0.315005662208801,-2.76707788085937
0.315255666702617,-2.77186791992187
0.315505671196434,-2.77357446289062
0.31575567569025,-2.771298828125
0.316005680184067,-2.76674780273438
0.316255684677883,-2.76962890625
0.3165056891717,-2.77249194335938
0.316755693665516,-2.7700693359375
0.317005698159333,-2.76834423828125
0.317255702653149,-2.77278540039062
0.317505707146966,-2.77276708984375
0.317755711640782,-2.77601538085937
0.318005716134599,-2.77427197265625
0.318255720628415,-2.77542822265625
0.318505725122232,-2.77695141601563
0.318755729616048,-2.77410668945312
0.319005734109865,-2.771390625
0.319255738603681,-2.77359301757813
0.319505743097498,-2.76955541992188
0.319755747591314,-2.77221655273437
0.320005752085131,-2.770509765625
0.320255756578947,-2.77667602539062
0.320505761072764,-2.77304223632812
0.32075576556658,-2.771666015625
0.321005770060397,-2.76823413085937
0.321255774554213,-2.76973901367188
0.32150577904803,-2.77372143554688
0.321755783541846,-2.773794921875
0.322005788035663,-2.77252856445313
0.322255792529479,-2.77109692382813
0.322505797023296,-2.76861938476562
0.322755801517112,-2.771298828125
0.323005806010929,-2.77096875
0.323255810504745,-2.7685830078125
0.323505814998562,-2.7721982421875
0.323755819492378,-2.76885815429688
0.324005823986195,-2.7680322265625
0.324255828480011,-2.77351953125
0.324505832973828,-2.77524462890625
0.324755837467645,-2.77656591796875
0.325005841961461,-2.77496948242187
0.325255846455278,-2.7756298828125
0.325505850949094,-2.77425366210938
0.325755855442911,-2.7707666015625
0.326005859936727,-2.77331762695313
0.326255864430544,-2.77963061523438
0.32650586892436,-2.77594189453125
0.326755873418177,-2.773794921875
0.327005877911993,-2.77271215820313
0.32725588240581,-2.77359301757813
0.327505886899626,-2.77507934570313
0.327755891393443,-2.77676782226562
0.328005895887259,-2.77777709960937
0.328255900381076,-2.77963061523438
0.328505904874892,-2.77799731445312
0.328755909368709,-2.78003442382813
0.329005913862525,-2.78376000976563
0.329255918356342,-2.785283203125
0.329505922850158,-2.78104370117188
0.329755927343975,-2.77860302734375
0.330005931837791,-2.78234692382813
0.330255936331608,-2.78425537109375
0.330505940825424,-2.78137426757813
0.330755945319241,-2.77397827148438
0.331005949813057,-2.76669262695312
0.331255954306874,-2.76023266601563
0.33150595880069,-2.75970043945313
0.331755963294507,-2.76201293945312
0.332005967788323,-2.76507763671875
0.33225597228214,-2.76790380859375
0.332505976775956,-2.769353515625
0.332755981269773,-2.767958984375
0.333005985763589,-2.77418017578125
0.333255990257406,-2.77381323242188
0.333505994751222,-2.77234497070312
0.333755999245039,-2.7733359375
0.334006003738855,-2.77445556640625
0.334256008232672,-2.77496948242187
0.334506012726488,-2.77151904296875
0.334756017220305,-2.76779370117187
0.335006021714121,-2.76751831054687
0.335256026207938,-2.76979418945312
0.335506030701754,-2.7722900390625
0.335756035195571,-2.770693359375
0.336006039689387,-2.77243676757812
0.336256044183204,-2.77206982421875
0.33650604867702,-2.77010595703125
0.336756053170837,-2.76850927734375
0.337006057664653,-2.7694453125
0.33725606215847,-2.7662705078125
0.337506066652286,-2.76416015625
0.337756071146103,-2.76643579101562
0.33800607563992,-2.76425170898438
0.338256080133736,-2.76474731445313
0.338506084627553,-2.76906005859375
0.338756089121369,-2.77357446289062
0.339006093615186,-2.77603369140625
0.339256098109002,-2.77260205078125
0.339506102602819,-2.77267529296875
0.339756107096635,-2.77095043945313
0.340006111590452,-2.7719228515625
0.340256116084268,-2.77085864257812
0.340506120578085,-2.77170263671875
0.340756125071901,-2.77287719726562
0.341006129565718,-2.77234497070312
0.341256134059534,-2.77216162109375
0.341506138553351,-2.775189453125
0.341756143047167,-2.77212475585937
0.342006147540984,-2.77271215820313
0.3422561520348,-2.77603369140625
0.342506156528617,-2.7749326171875
0.342756161022433,-2.77452880859375
0.34300616551625,-2.77454736328125
0.343256170010066,-2.7764375
0.343506174503883,-2.77601538085937
0.343756178997699,-2.77236328125
0.344006183491516,-2.77691479492188
0.344256187985332,-2.77759375
0.344506192479149,-2.77568505859375
0.344756196972965,-2.77408837890625
0.345006201466782,-2.77405151367187
0.345256205960598,-2.77318920898438
0.345506210454415,-2.77102368164062
0.345756214948231,-2.77240014648438
0.346006219442048,-2.77285888671875
0.346256223935864,-2.77038134765625
0.346506228429681,-2.77208813476562
0.346756232923497,-2.77342797851562
0.347006237417314,-2.77295068359375
0.34725624191113,-2.7711337890625
0.347506246404947,-2.77267529296875
0.347756250898763,-2.77487744140625
0.34800625539258,-2.77410668945312
0.348256259886396,-2.77478564453125
0.348506264380213,-2.77036279296875
0.348756268874029,-2.76871142578125
0.349006273367846,-2.76865625
0.349256277861662,-2.77014282226562
0.349506282355479,-2.7739599609375
0.349756286849295,-2.77880493164063
0.350006291343112,-2.7749326171875
0.350256295836928,-2.77135400390625
0.350506300330745,-2.77401513671875
0.350756304824561,-2.77203295898437
0.351006309318378,-2.77117065429688
0.351256313812194,-2.7684912109375
0.351506318306011,-2.77199633789062
0.351756322799827,-2.77412524414062
0.352006327293644,-2.77234497070312
0.35225633178746,-2.77522631835937
0.352506336281277,-2.77478564453125
0.352756340775093,-2.77344604492187
0.35300634526891,-2.7737763671875
0.353256349762727,-2.77161083984375
0.353506354256543,-2.77155590820312
0.35375635875036,-2.76913330078125
0.354006363244176,-2.76973901367188
0.354256367737993,-2.77471240234375
0.354506372231809,-2.77772216796875
0.354756376725626,-2.77759375
0.355006381219442,-2.7759052734375
0.355256385713259,-2.77418017578125
0.355506390207075,-2.77597875976562
0.355756394700892,-2.77434545898437
0.356006399194708,-2.77028955078125
0.356256403688525,-2.77111547851562
0.356506408182341,-2.77542822265625
0.356756412676158,-2.77715307617187
0.357006417169974,-2.77392333984375
0.357256421663791,-2.77416186523438
0.357506426157607,-2.77249194335938
0.357756430651424,-2.76817919921875
0.35800643514524,-2.77216162109375
0.358256439639057,-2.77388647460937
0.358506444132873,-2.77205126953125
0.35875644862669,-2.76920678710938
0.359006453120506,-2.76421508789063
0.359256457614323,-2.76549975585937
0.359506462108139,-2.77216162109375
0.359756466601956,-2.77553833007812
0.360006471095772,-2.77586865234375
0.360256475589589,-2.77282202148437
0.360506480083405,-2.7758134765625
0.360756484577222,-2.773794921875
0.361006489071038,-2.77537329101563
0.361256493564855,-2.77384985351563
0.361506498058671,-2.77318920898438
0.361756502552488,-2.77126220703125
0.362006507046304,-2.77019775390625
0.362256511540121,-2.76992260742187
0.362506516033937,-2.76628881835937
0.362756520527754,-2.77023461914062
0.36300652502157,-2.77084008789063
0.363256529515387,-2.77190454101562
0.363506534009203,-2.77190454101562
0.36375653850302,-2.77082177734375
0.364006542996836,-2.77137255859375
0.364256547490653,-2.77157421875
0.364506551984469,-2.77093188476562
0.364756556478286,-2.76779370117187
0.365006560972102,-2.767958984375
0.365256565465919,-2.7675
0.365506569959735,-2.76612377929687
0.365756574453552,-2.76915161132812
0.366006578947368,-2.767169921875
0.366256583441185,-2.7688212890625
0.366506587935001,-2.77047290039062
0.366756592428818,-2.76986743164063
0.367006596922634,-2.773611328125
0.367256601416451,-2.77186791992187
0.367506605910268,-2.7723818359375
0.367756610404084,-2.77478564453125
0.3680066148979,-2.77698803710937
0.368256619391717,-2.7743271484375
0.368506623885534,-2.77227172851563
0.36875662837935,-2.77381323242188
0.369006632873167,-2.77408837890625
0.369256637366983,-2.7707666015625
0.3695066418608,-2.76816088867188
0.369756646354616,-2.77392333984375
0.370006650848433,-2.77443725585937
0.370256655342249,-2.77373974609375
0.370506659836066,-2.7711337890625
0.370756664329882,-2.76867456054687
0.371006668823699,-2.77005078125
0.371256673317515,-2.77084008789063
0.371506677811332,-2.76876635742188
0.371756682305148,-2.76904150390625
0.372006686798965,-2.77206982421875
0.372256691292781,-2.7742353515625
0.372506695786598,-2.77507934570313
0.372756700280414,-2.77759375
0.373006704774231,-2.77957568359375
0.373256709268047,-2.7768046875
0.373506713761864,-2.77814428710938
0.37375671825568,-2.77764868164062
0.374006722749497,-2.77170263671875
0.374256727243313,-2.77362963867188
0.37450673173713,-2.77410668945312
0.374756736230946,-2.77252856445313
0.375006740724763,-2.77005078125
0.375256745218579,-2.76984912109375
0.375506749712396,-2.77082177734375
0.375756754206212,-2.77529956054688
0.376006758700029,-2.77419848632813
0.376256763193845,-2.77410668945312
0.376506767687662,-2.77285888671875
0.376756772181478,-2.7706015625
0.377006776675295,-2.77709814453125
0.377256781169111,-2.77698803710937
0.377506785662928,-2.77362963867188
0.377756790156744,-2.77469409179688
0.378006794650561,-2.77304223632812
0.378256799144377,-2.7723818359375
0.378506803638194,-2.7742353515625
0.37875680813201,-2.77630908203125
0.379006812625827,-2.7718310546875
0.379256817119643,-2.77084008789063
0.37950682161346,-2.77520776367188
0.379756826107276,-2.7751162109375
0.380006830601093,-2.77375805664063
0.380256835094909,-2.77328100585938
0.380506839588726,-2.7751162109375
0.380756844082542,-2.776712890625
0.381006848576359,-2.7783828125
0.381256853070175,-2.77966748046875
0.381506857563992,-2.7789150390625
0.381756862057808,-2.7759052734375
0.382006866551625,-2.77588696289062
0.382256871045441,-2.77258374023438
0.382506875539258,-2.77351953125
0.382756880033075,-2.77407006835938
0.383006884526891,-2.77662084960938
0.383256889020708,-2.77491430664063
0.383506893514524,-2.77021630859375
0.383756898008341,-2.769353515625
0.384006902502157,-2.7722900390625
0.384256906995974,-2.7684912109375
0.38450691148979,-2.76942724609375
0.384756915983607,-2.77142749023437
0.385006920477423,-2.7719228515625
0.38525692497124,-2.7737763671875
0.385506929465056,-2.77373974609375
0.385756933958873,-2.77407006835938
0.386006938452689,-2.77504272460938
0.386256942946506,-2.77362963867188
0.386506947440322,-2.77269384765625
0.386756951934139,-2.77357446289062
0.387006956427955,-2.77164770507812
0.387256960921772,-2.77109692382813
0.387506965415588,-2.77304223632812
0.387756969909405,-2.77095043945313
0.388006974403221,-2.7744921875
0.388256978897038,-2.77478564453125
0.388506983390854,-2.77039965820313
0.388756987884671,-2.77195971679688
0.389006992378487,-2.77071166992187
0.389256996872304,-2.77212475585937
0.38950700136612,-2.7757216796875
0.389757005859937,-2.776345703125
0.390007010353753,-2.7745654296875
0.39025701484757,-2.77553833007812
0.390507019341386,-2.77267529296875
0.390757023835203,-2.771666015625
0.391007028329019,-2.77065673828125
0.391257032822836,-2.77197802734375
0.391507037316652,-2.77030786132813
0.391757041810469,-2.76773876953125
0.392007046304285,-2.77597875976562
0.392257050798102,-2.77407006835938
0.392507055291918,-2.7742353515625
0.392757059785735,-2.77561157226563
0.393007064279551,-2.77920849609375
0.393257068773368,-2.77520776367188
0.393507073267184,-2.76913330078125
0.393757077761001,-2.76720629882813
0.394007082254817,-2.769904296875
0.394257086748634,-2.76827099609375
0.39450709124245,-2.77074853515625
0.394757095736267,-2.77649267578125
0.395007100230083,-2.77990600585938
0.3952571047239,-2.77623559570312
0.395507109217716,-2.77950219726563
0.395757113711533,-2.77902514648438
0.396007118205349,-2.77153759765625
0.396257122699166,-2.7718310546875
0.396507127192982,-2.77339111328125
0.396757131686799,-2.77216162109375
0.397007136180615,-2.77120703125
0.397257140674432,-2.77271215820313
0.397507145168248,-2.77373974609375
0.397757149662065,-2.7721982421875
0.398007154155882,-2.77509765625
0.398257158649698,-2.7743271484375
0.398507163143515,-2.77267529296875
0.398757167637331,-2.77001440429687
0.399007172131148,-2.77111547851562
0.399257176624964,-2.77278540039062
0.399507181118781,-2.77260205078125
0.399757185612597,-2.77373974609375
0.400007190106414,-2.77005078125
0.40025719460023,-2.77117065429688
0.400507199094047,-2.77318920898438
0.400757203587863,-2.77285888671875
0.40100720808168,-2.7698857421875
0.401257212575496,-2.76891333007812
0.401507217069313,-2.76946362304687
0.401757221563129,-2.77161083984375
0.402007226056946,-2.77454736328125
0.402257230550762,-2.7759970703125
0.402507235044579,-2.77700659179688
0.402757239538395,-2.7736845703125
0.403007244032212,-2.76999584960938
0.403257248526028,-2.77021630859375
0.403507253019845,-2.77258374023438
0.403757257513661,-2.77350122070313
0.404007262007478,-2.77755688476562
0.404257266501294,-2.77709814453125
0.404507270995111,-2.7736845703125
0.404757275488927,-2.77594189453125
0.405007279982744,-2.77930029296875
0.40525728447656,-2.7738681640625
0.405507288970377,-2.77027124023438
0.405757293464193,-2.76913330078125
0.40600729795801,-2.77197802734375
0.406257302451826,-2.7750244140625
0.406507306945643,-2.7722900390625
0.406757311439459,-2.77124389648437
0.407007315933276,-2.76906005859375
0.407257320427092,-2.77190454101562
0.407507324920909,-2.77157421875
0.407757329414725,-2.77216162109375
0.408007333908542,-2.76904150390625
0.408257338402358,-2.7706015625
0.408507342896175,-2.77480419921875
0.408757347389991,-2.7721982421875
0.409007351883808,-2.77179443359375
0.409257356377624,-2.77144580078125
0.409507360871441,-2.77342797851562
0.409757365365257,-2.77082177734375
0.410007369859074,-2.7684912109375
0.41025737435289,-2.77366625976562
0.410507378846707,-2.77350122070313
0.410757383340523,-2.77366625976562
0.41100738783434,-2.77142749023437
0.411257392328156,-2.7743271484375
0.411507396821973,-2.77823608398438
0.41175740131579,-2.77737353515625
0.412007405809606,-2.7743271484375
0.412257410303423,-2.77698803710937
0.412507414797239,-2.77761206054688
0.412757419291056,-2.77886010742187
0.413007423784872,-2.77707983398437
0.413257428278689,-2.77759375
0.413507432772505,-2.77467553710937
0.413757437266322,-2.77561157226563
0.414007441760138,-2.77170263671875
0.414257446253955,-2.774767578125
0.414507450747771,-2.77173950195313
0.414757455241588,-2.7692802734375
0.415007459735404,-2.77214306640625
0.415257464229221,-2.77256518554687
0.415507468723037,-2.77157421875
0.415757473216854,-2.7767861328125
0.41600747771067,-2.77739184570313
0.416257482204487,-2.77315234375
0.416507486698303,-2.769353515625
0.41675749119212,-2.7742353515625
0.417007495685936,-2.77755688476562
0.417257500179753,-2.7768779296875
0.417507504673569,-2.77342797851562
0.417757509167386,-2.77408837890625
0.418007513661202,-2.77179443359375
0.418257518155019,-2.77005078125
0.418507522648835,-2.769353515625
0.418757527142652,-2.77287719726562
0.419007531636468,-2.77269384765625
0.419257536130285,-2.77063842773437
0.419507540624101,-2.77295068359375
0.419757545117918,-2.77214306640625
0.420007549611734,-2.773244140625
0.420257554105551,-2.77276708984375
0.420507558599367,-2.7699775390625
0.420757563093184,-2.77028955078125
0.421007567587,-2.77419848632813
0.421257572080817,-2.77421704101562
0.421507576574633,-2.77702490234375
0.42175758106845,-2.77421704101562
0.422007585562266,-2.77487744140625
0.422257590056083,-2.7760888671875
0.422507594549899,-2.77471240234375
0.422757599043716,-2.773244140625
0.423007603537532,-2.7761806640625
0.423257608031349,-2.77698803710937
0.423507612525165,-2.77491430664063
0.423757617018982,-2.773005859375
0.424007621512798,-2.77588696289062
0.424257626006615,-2.78012622070313
0.424507630500431,-2.77544653320312
0.424757634994248,-2.77419848632813
0.425007639488064,-2.77436352539062
0.425257643981881,-2.77886010742187
0.425507648475697,-2.774583984375
0.425757652969514,-2.7719228515625
0.42600765746333,-2.77282202148437
0.426257661957147,-2.77339111328125
0.426507666450963,-2.77328100585938
0.42675767094478,-2.77412524414062
0.427007675438597,-2.77118872070313
0.427257679932413,-2.77142749023437
0.42750768442623,-2.771666015625
0.427757688920046,-2.772546875
0.428007693413863,-2.7736845703125
0.428257697907679,-2.77146411132812
0.428507702401496,-2.77513452148437
0.428757706895312,-2.77243676757812
0.429007711389129,-2.77065673828125
0.429257715882945,-2.77315234375
0.429507720376762,-2.77463916015625
0.429757724870578,-2.77236328125
0.430007729364395,-2.77575854492187
0.430257733858211,-2.77601538085937
0.430507738352028,-2.77841943359375
0.430757742845844,-2.7795390625
0.431007747339661,-2.77507934570313
0.431257751833477,-2.7742353515625
0.431507756327294,-2.77126220703125
0.43175776082111,-2.77251025390625
0.432007765314927,-2.77296899414063
0.432257769808743,-2.77463916015625
0.43250777430256,-2.77592358398438
0.432757778796376,-2.77539135742188
0.433007783290193,-2.77287719726562
0.433257787784009,-2.77471240234375
0.433507792277826,-2.77612548828125
0.433757796771642,-2.7737763671875
0.434007801265459,-2.77124389648437
0.434257805759275,-2.76788549804688
0.434507810253092,-2.7717578125
0.434757814746908,-2.77331762695313
0.435007819240725,-2.77236328125
0.435257823734541,-2.76845434570312
0.435507828228358,-2.7681240234375
0.435757832722174,-2.77144580078125
0.436007837215991,-2.77135400390625
0.436257841709807,-2.77344604492187
0.436507846203624,-2.77199633789062
0.43675785069744,-2.77118872070313
0.437007855191257,-2.77115209960937
0.437257859685073,-2.77359301757813
0.43750786417889,-2.777318359375
0.437757868672706,-2.77799731445312
0.438007873166523,-2.77285888671875
0.438257877660339,-2.77217993164063
0.438507882154156,-2.76994091796875
0.438757886647972,-2.77056469726563
0.439007891141789,-2.77397827148438
0.439257895635605,-2.77722680664063
0.439507900129422,-2.77436352539062
0.439757904623238,-2.77451049804688
0.440007909117055,-2.779447265625
0.440257913610871,-2.77840112304688
0.440507918104688,-2.77535473632812
0.440757922598504,-2.77546484375
0.441007927092321,-2.7768779296875
0.441257931586138,-2.77718994140625
0.441507936079954,-2.7760888671875
0.44175794057377,-2.77416186523438
0.442007945067587,-2.77161083984375
0.442257949561404,-2.76999584960938
0.44250795405522,-2.77902514648438
0.442757958549037,-2.77469409179688
0.443007963042853,-2.77436352539062
0.44325796753667,-2.77159252929687
0.443507972030486,-2.77267529296875
0.443757976524303,-2.77095043945313
0.444007981018119,-2.77017944335938
0.444257985511936,-2.77575854492187
0.444507990005752,-2.77278540039062
0.444757994499569,-2.77115209960937
0.445007998993385,-2.77221655273437
0.445258003487202,-2.7745654296875
0.445508007981018,-2.77225317382812
0.445758012474835,-2.7719228515625
0.446008016968651,-2.77087670898438
0.446258021462468,-2.76854614257813
0.446508025956284,-2.77063842773437
0.446758030450101,-2.77284033203125
0.447008034943917,-2.77058325195312
0.447258039437734,-2.76871142578125
0.44750804393155,-2.76983081054688
0.447758048425367,-2.77315234375
0.448008052919183,-2.77087670898438
0.448258057413,-2.77542822265625
0.448508061906816,-2.77465747070312
0.448758066400633,-2.77441870117188
0.449008070894449,-2.77625390625
0.449258075388266,-2.77480419921875
0.449508079882082,-2.77331762695313
0.449758084375899,-2.77364794921875
0.450008088869715,-2.7754833984375
0.450258093363532,-2.77074853515625
0.450508097857348,-2.77267529296875
0.450758102351165,-2.77601538085937
0.451008106844981,-2.7743271484375
0.451258111338798,-2.77852954101562
0.451508115832614,-2.77827270507813
0.451758120326431,-2.77939208984375
0.452008124820247,-2.77715307617187
0.452258129314064,-2.77251025390625
0.45250813380788,-2.770693359375
0.452758138301697,-2.77533642578125
0.453008142795513,-2.77761206054688
0.45325814728933,-2.77575854492187
0.453508151783146,-2.77832788085938
0.453758156276963,-2.77478564453125
0.454008160770779,-2.77774047851562
0.454258165264596,-2.77946557617188
0.454508169758412,-2.77818090820313
0.454758174252229,-2.77495092773438
0.455008178746045,-2.76962890625
0.455258183239862,-2.77146411132812
0.455508187733678,-2.77588696289062
0.455758192227495,-2.77610693359375
0.456008196721311,-2.77709814453125
0.456258201215128,-2.7764375
0.456508205708945,-2.7764375
0.456758210202761,-2.77344604492187
0.457008214696578,-2.77124389648437
0.457258219190394,-2.77063842773437
0.457508223684211,-2.77252856445313
0.457758228178027,-2.77553833007812
0.458008232671844,-2.7751162109375
0.45825823716566,-2.77109692382813
0.458508241659477,-2.76775708007813
0.458758246153293,-2.76994091796875
0.45900825064711,-2.7684912109375
0.459258255140926,-2.76672924804687
0.459508259634743,-2.76883959960937
0.459758264128559,-2.7684912109375
0.460008268622376,-2.76511450195312
0.460258273116192,-2.76876635742188
0.460508277610009,-2.77155590820312
0.460758282103825,-2.77375805664063
0.461008286597642,-2.77722680664063
0.461258291091458,-2.7754833984375
0.461508295585275,-2.775556640625
0.461758300079091,-2.7733359375
0.462008304572908,-2.77557495117187
0.462258309066724,-2.77504272460938
0.462508313560541,-2.77329931640625
0.462758318054357,-2.77509765625
0.463008322548174,-2.77739184570313
0.46325832704199,-2.77840112304688
0.463508331535807,-2.78054833984375
0.463758336029623,-2.78464086914062
0.46400834052344,-2.78238354492188
0.464258345017256,-2.7817412109375
0.464508349511073,-2.78570532226562
0.464758354004889,-2.7873017578125
0.465008358498706,-2.78464086914062
0.465258362992522,-2.78799926757813
0.465508367486339,-2.78339306640625
0.465758371980155,-2.76841748046875
0.466008376473972,-2.76248999023437
0.466258380967788,-2.75632373046875
0.466508385461605,-2.7592783203125
0.466758389955421,-2.7667109375
0.467008394449238,-2.7718310546875
0.467258398943054,-2.76825244140625
0.467508403436871,-2.76808740234375
0.467758407930687,-2.77179443359375
0.468008412424504,-2.77135400390625
0.46825841691832,-2.77311596679688
0.468508421412137,-2.7721982421875
0.468758425905953,-2.7721982421875
0.46900843039977,-2.77383154296875
0.469258434893586,-2.77309741210937
0.469508439387403,-2.77249194335938
0.469758443881219,-2.77306079101563
0.470008448375036,-2.77372143554688
0.470258452868852,-2.77640087890625
0.470508457362669,-2.77397827148438
0.470758461856485,-2.77234497070312
0.471008466350302,-2.778107421875
0.471258470844118,-2.77520776367188
0.471508475337935,-2.77249194335938
0.471758479831752,-2.77342797851562
0.472008484325568,-2.77700659179688
0.472258488819385,-2.77397827148438
0.472508493313201,-2.77597875976562
0.472758497807018,-2.77416186523438
0.473008502300834,-2.76883959960937
0.473258506794651,-2.76845434570312
0.473508511288467,-2.770509765625
0.473758515782284,-2.76961059570313
0.4740085202761,-2.77445556640625
0.474258524769917,-2.7781259765625
0.474508529263733,-2.77507934570313
0.47475853375755,-2.77443725585937
0.475008538251366,-2.77746508789062
0.475258542745183,-2.77273022460937
0.475508547238999,-2.77388647460937
0.475758551732816,-2.7756484375
0.476008556226632,-2.7760888671875
0.476258560720449,-2.77616235351563
0.476508565214265,-2.77410668945312
0.476758569708082,-2.77529956054688
0.477008574201898,-2.77170263671875
0.477258578695715,-2.77276708984375
0.477508583189531,-2.77575854492187
0.477758587683348,-2.77658447265625
0.478008592177164,-2.77489575195312
0.478258596670981,-2.77445556640625
0.478508601164797,-2.77495092773438
0.478758605658614,-2.77496948242187
0.47900861015243,-2.77854809570313
0.479258614646247,-2.780328125
0.479508619140063,-2.77685961914062
0.47975862363388,-2.77799731445312
0.480008628127696,-2.77539135742188
0.480258632621513,-2.77469409179688
0.480508637115329,-2.77212475585937
0.480758641609146,-2.7719228515625
0.481008646102962,-2.77474926757812
0.481258650596779,-2.77700659179688
0.481508655090595,-2.7728955078125
0.481758659584412,-2.77315234375
0.482008664078228,-2.7742353515625
0.482258668572045,-2.77265698242187
0.482508673065861,-2.773005859375
0.482758677559678,-2.77384985351563
0.483008682053494,-2.77533642578125
0.483258686547311,-2.77313403320312
0.483508691041127,-2.77808911132812
0.483758695534944,-2.77722680664063
0.48400870002876,-2.77673095703125
0.484258704522577,-2.77329931640625
0.484508709016393,-2.7761806640625
0.48475871351021,-2.77513452148437
0.485008718004026,-2.77054663085937
0.485258722497843,-2.7749326171875
0.48550872699166,-2.77539135742188
0.485758731485476,-2.77469409179688
0.486008735979293,-2.7742353515625
0.486258740473109,-2.7742353515625
0.486508744966926,-2.77533642578125
0.486758749460742,-2.77515283203125
0.487008753954559,-2.7768046875
0.487258758448375,-2.77863989257812
0.487508762942192,-2.773244140625
0.487758767436008,-2.77096875
0.488008771929825,-2.7736845703125
0.488258776423641,-2.77533642578125
0.488508780917458,-2.77329931640625
0.488758785411274,-2.77151904296875
0.489008789905091,-2.77418017578125
0.489258794398907,-2.77522631835937
0.489508798892724,-2.77410668945312
0.48975880338654,-2.77867626953125
0.490008807880357,-2.78137426757813
0.490258812374173,-2.77783227539063
0.49050881686799,-2.77913525390625
0.490758821361806,-2.77594189453125
0.491008825855623,-2.77685961914062
0.491258830349439,-2.77452880859375
0.491508834843256,-2.769904296875
0.491758839337072,-2.772638671875
0.492008843830889,-2.77309741210937
0.492258848324705,-2.77260205078125
0.492508852818522,-2.77915356445313
0.492758857312338,-2.78091552734375
0.493008861806155,-2.77783227539063
0.493258866299971,-2.77992431640625
0.493508870793788,-2.77667602539062
0.493758875287604,-2.774859375
0.494008879781421,-2.77269384765625
0.494258884275237,-2.7690966796875
0.494508888769054,-2.77148266601563
0.49475889326287,-2.77364794921875
0.495008897756687,-2.77117065429688
0.495258902250503,-2.77010595703125
0.49550890674432,-2.77173950195313
0.495758911238136,-2.77012451171875
0.496008915731953,-2.77063842773437
0.496258920225769,-2.77471240234375
0.496508924719586,-2.77487744140625
0.496758929213402,-2.77465747070312
0.497008933707219,-2.77830932617187
0.497258938201035,-2.77570336914063
0.497508942694852,-2.77707983398437
0.497758947188668,-2.77808911132812
0.498008951682485,-2.77419848632813
0.498258956176301,-2.77091357421875
0.498508960670118,-2.77093188476562
0.498758965163934,-2.77322607421875
0.499008969657751,-2.7742353515625
0.499258974151568,-2.77489575195312
0.499508978645384,-2.77478564453125
0.4997589831392,-2.77495092773438
0.500008987633017,-2.77350122070313
0.500258992126833,-2.77322607421875
0.50050899662065,-2.77616235351563
0.500759001114466,-2.77700659179688
0.501009005608283,-2.77544653320312
0.5012590101021,-2.77537329101563
0.501509014595916,-2.77605200195313
0.501759019089733,-2.778896484375
0.502009023583549,-2.77948413085937
0.502259028077366,-2.77957568359375
0.502509032571182,-2.77295068359375
0.502759037064999,-2.77364794921875
0.503009041558815,-2.771666015625
0.503259046052632,-2.76915161132812
0.503509050546448,-2.77328100585938
0.503759055040265,-2.77429028320313
0.504009059534081,-2.7718310546875
0.504259064027898,-2.77217993164063
0.504509068521714,-2.77471240234375
0.504759073015531,-2.77524462890625
0.505009077509347,-2.77884155273438
0.505259082003164,-2.77709814453125
0.50550908649698,-2.76992260742187
0.505759090990797,-2.77662084960938
0.506009095484613,-2.7769697265625
0.50625909997843,-2.77722680664063
0.506509104472246,-2.7764189453125
0.506759108966063,-2.773794921875
0.507009113459879,-2.77471240234375
0.507259117953696,-2.77216162109375
0.507509122447512,-2.77276708984375
0.507759126941329,-2.77372143554688
0.508009131435145,-2.773703125
0.508259135928962,-2.7770615234375
0.508509140422778,-2.77920849609375
0.508759144916595,-2.7769697265625
0.509009149410411,-2.77603369140625
0.509259153904228,-2.77537329101563
0.509509158398044,-2.77465747070312
0.509759162891861,-2.77535473632812
0.510009167385677,-2.77168432617187
0.510259171879494,-2.7700693359375
0.51050917637331,-2.77304223632812
0.510759180867127,-2.771849609375
0.511009185360943,-2.77375805664063
0.51125918985476,-2.77658447265625
0.511509194348576,-2.77522631835937
0.511759198842393,-2.773794921875
0.512009203336209,-2.77142749023437
0.512259207830026,-2.77082177734375
0.512509212323842,-2.77199633789062
0.512759216817659,-2.77808911132812
0.513009221311475,-2.77768530273437
0.513259225805292,-2.77188623046875
0.513509230299108,-2.77355615234375
0.513759234792925,-2.7764375
0.514009239286741,-2.77658447265625
0.514259243780558,-2.77847436523437
0.514509248274374,-2.77774047851562
0.514759252768191,-2.7743271484375
0.515009257262008,-2.77691479492188
0.515259261755824,-2.77897021484375
0.51550926624964,-2.77451049804688
0.515759270743457,-2.77276708984375
0.516009275237273,-2.77535473632812
0.51625927973109,-2.77737353515625
0.516509284224907,-2.7764375
0.516759288718723,-2.77364794921875
0.51700929321254,-2.77364794921875
0.517259297706356,-2.77260205078125
0.517509302200173,-2.76902319335937
0.517759306693989,-2.77214306640625
0.518009311187806,-2.77375805664063
0.518259315681622,-2.77408837890625
0.518509320175439,-2.7742353515625
0.518759324669255,-2.77774047851562
0.519009329163072,-2.77384985351563
0.519259333656888,-2.77364794921875
0.519509338150705,-2.772546875
0.519759342644521,-2.77214306640625
0.520009347138338,-2.77014282226562
0.520259351632154,-2.770693359375
0.520509356125971,-2.77295068359375
0.520759360619787,-2.77065673828125
0.521009365113604,-2.77273022460937
0.52125936960742,-2.77353784179688
0.521509374101237,-2.77673095703125
0.521759378595053,-2.77805249023438
0.52200938308887,-2.77509765625
0.522259387582686,-2.7744736328125
0.522509392076503,-2.77434545898437
0.522759396570319,-2.77498754882813
0.523009401064136,-2.77355615234375
0.523259405557952,-2.77359301757813
0.523509410051769,-2.77392333984375
0.523759414545585,-2.77284033203125
0.524009419039402,-2.77436352539062
0.524259423533218,-2.77276708984375
0.524509428027035,-2.77038134765625
0.524759432520851,-2.77120703125
0.525009437014668,-2.772546875
0.525259441508484,-2.77100537109375
0.525509446002301,-2.77005078125
0.525759450496117,-2.76977563476563
0.526009454989934,-2.76966552734375
0.52625945948375,-2.77038134765625
0.526509463977567,-2.7744736328125
0.526759468471383,-2.77922705078125
0.5270094729652,-2.77790576171875
0.527259477459016,-2.77902514648438
0.527509481952833,-2.77779565429688
0.527759486446649,-2.778658203125
0.528009490940466,-2.77799731445312
0.528259495434283,-2.778107421875
0.528509499928099,-2.78543017578125
0.528759504421916,-2.7861640625
0.529009508915732,-2.78555834960938
0.529259513409548,-2.78381494140625
0.529509517903365,-2.78649438476562
0.529759522397181,-2.7844755859375
0.530009526890998,-2.78036474609375
0.530259531384815,-2.7783642578125
0.530509535878631,-2.77561157226563
0.530759540372448,-2.77328100585938
0.531009544866264,-2.77438208007813
0.531259549360081,-2.77418017578125
0.531509553853897,-2.7733359375
0.531759558347714,-2.777318359375
0.53200956284153,-2.77849291992188
0.532259567335347,-2.77287719726562
0.532509571829163,-2.77381323242188
0.53275957632298,-2.77438208007813
0.533009580816796,-2.7710419921875
0.533259585310613,-2.77313403320312
0.533509589804429,-2.776712890625
0.533759594298246,-2.77841943359375
0.534009598792062,-2.77621728515625
0.534259603285879,-2.77586865234375
0.534509607779695,-2.777318359375
0.534759612273512,-2.77282202148437
0.535009616767328,-2.772546875
0.535259621261145,-2.7729873046875
0.535509625754961,-2.77212475585937
0.535759630248778,-2.7749326171875
0.536009634742594,-2.77774047851562
0.536259639236411,-2.7748408203125
0.536509643730227,-2.77084008789063
0.536759648224044,-2.77267529296875
0.53700965271786,-2.77401513671875
0.537259657211677,-2.77342797851562
0.537509661705493,-2.77401513671875
0.53775966619931,-2.77419848632813
0.538009670693126,-2.77469409179688
0.538259675186943,-2.7706748046875
0.538509679680759,-2.7671513671875
0.538759684174576,-2.76702294921875
0.539009688668392,-2.76801391601562
0.539259693162209,-2.76816088867188
0.539509697656025,-2.77155590820312
0.539759702149842,-2.77392333984375
0.540009706643658,-2.77412524414062
0.540259711137475,-2.77462060546875
0.540509715631291,-2.77607055664062
0.540759720125108,-2.77847436523437
0.541009724618924,-2.77625390625
0.541259729112741,-2.77441870117188
0.541509733606557,-2.77761206054688
0.541759738100374,-2.78027319335937
0.54200974259419,-2.78339306640625
0.542259747088007,-2.7776669921875
0.542509751581823,-2.77100537109375
0.54275975607564,-2.77214306640625
0.543009760569456,-2.77746508789062
0.543259765063273,-2.77851123046875
0.54350976955709,-2.77491430664063
0.543759774050906,-2.77390502929688
0.544009778544723,-2.77526293945313
0.544259783038539,-2.7743271484375
0.544509787532355,-2.77753881835938
0.544759792026172,-2.77854809570313
0.545009796519988,-2.7757216796875
0.545259801013805,-2.77676782226562
0.545509805507622,-2.7781259765625
0.545759810001438,-2.78150268554687
0.546009814495255,-2.7769697265625
0.546259818989071,-2.77513452148437
0.546509823482888,-2.77730004882812
0.546759827976704,-2.77895166015625
0.547009832470521,-2.7795205078125
0.547259836964337,-2.7781259765625
0.547509841458154,-2.77711669921875
0.54775984595197,-2.7775751953125
0.548009850445787,-2.777318359375
0.548259854939603,-2.77557495117187
0.54850985943342,-2.77869482421875
0.548759863927236,-2.77478564453125
0.549009868421053,-2.77884155273438
0.549259872914869,-2.77676782226562
0.549509877408686,-2.77654760742187
0.549759881902502,-2.77612548828125
0.550009886396319,-2.77841943359375
0.550259890890135,-2.77517138671875
0.550509895383952,-2.77418017578125
0.550759899877768,-2.773794921875
0.551009904371585,-2.7751162109375
0.551259908865401,-2.77676782226562
0.551509913359218,-2.77647412109375
0.551759917853034,-2.77860302734375
0.552009922346851,-2.77471240234375
0.552259926840667,-2.773005859375
0.552509931334484,-2.77273022460937
0.5527599358283,-2.77025268554687
0.553009940322117,-2.7733359375
0.553259944815933,-2.77709814453125
0.55350994930975,-2.77522631835937
0.553759953803566,-2.7754833984375
0.554009958297383,-2.77425366210938
0.554259962791199,-2.77258374023438
0.554509967285016,-2.77566674804687
0.554759971778832,-2.77603369140625
0.555009976272649,-2.7729873046875
0.555259980766465,-2.77649267578125
0.555509985260282,-2.77495092773438
0.555759989754098,-2.7759052734375
0.556009994247915,-2.77783227539063
0.556259998741731,-2.7750244140625
0.556510003235548,-2.772546875
0.556760007729364,-2.76975732421875
0.557010012223181,-2.769904296875
0.557260016716997,-2.77115209960937
0.557510021210814,-2.77465747070312
0.55776002570463,-2.7754833984375
0.558010030198447,-2.77592358398438
0.558260034692263,-2.77674951171875
0.55851003918608,-2.77353784179688
0.558760043679897,-2.7761806640625
0.559010048173713,-2.78109887695312
0.55926005266753,-2.77451049804688
0.559510057161346,-2.77535473632812
0.559760061655163,-2.77656591796875
0.560010066148979,-2.77834619140625
0.560260070642795,-2.77856640625
0.560510075136612,-2.77544653320312
0.560760079630429,-2.77397827148438
0.561010084124245,-2.77388647460937
0.561260088618062,-2.77227172851563
0.561510093111878,-2.77430859375
0.561760097605695,-2.777134765625
0.562010102099511,-2.77392333984375
0.562260106593328,-2.77474926757812
0.562510111087144,-2.77748364257813
0.562760115580961,-2.7776669921875
0.563010120074777,-2.77561157226563
0.563260124568594,-2.77251025390625
0.56351012906241,-2.7751162109375
0.563760133556227,-2.7769697265625
0.564010138050043,-2.77876831054687
0.56426014254386,-2.78131909179687
0.564510147037676,-2.77869482421875
0.564760151531493,-2.77805249023438
0.565010156025309,-2.77693286132812
0.565260160519126,-2.77887817382812
0.565510165012942,-2.7789150390625
0.565760169506759,-2.77390502929688
0.566010174000575,-2.7744736328125
0.566260178494392,-2.77566674804687
0.566510182988208,-2.7741435546875
0.566760187482025,-2.77159252929687
0.567010191975841,-2.77100537109375
0.567260196469658,-2.77225317382812
0.567510200963474,-2.77087670898438
0.567760205457291,-2.77375805664063
0.568010209951107,-2.77146411132812
0.568260214444924,-2.77480419921875
0.56851021893874,-2.77759375
0.568760223432557,-2.77662084960938
0.569010227926373,-2.77410668945312
0.56926023242019,-2.77506127929687
0.569510236914006,-2.77507934570313
0.569760241407823,-2.7737763671875
0.570010245901639,-2.77346435546875
0.570260250395456,-2.77726318359375
0.570510254889272,-2.7759970703125
0.570760259383089,-2.77707983398437
0.571010263876905,-2.77818090820313
0.571260268370722,-2.7769697265625
0.571510272864538,-2.77695141601563
0.571760277358355,-2.7775751953125
0.572010281852171,-2.77630908203125
0.572260286345988,-2.77935546875
0.572510290839804,-2.78440234375
0.572760295333621,-2.78025463867188
0.573010299827437,-2.77808911132812
0.573260304321254,-2.77744677734375
0.57351030881507,-2.77506127929687
0.573760313308887,-2.77197802734375
0.574010317802704,-2.7751162109375
0.57426032229652,-2.77652905273438
0.574510326790337,-2.77577685546875
0.574760331284153,-2.77737353515625
0.57501033577797,-2.77596044921875
0.575260340271786,-2.77573999023438
0.575510344765603,-2.77674951171875
0.575760349259419,-2.77032641601562
0.576010353753236,-2.77247338867187
0.576260358247052,-2.77405151367187
0.576510362740869,-2.773611328125
0.576760367234685,-2.77306079101563
0.577010371728502,-2.77603369140625
0.577260376222318,-2.77796069335938
0.577510380716135,-2.77605200195313
0.577760385209951,-2.77676782226562
0.578010389703768,-2.77443725585937
0.578260394197584,-2.77649267578125
0.578510398691401,-2.77585034179687
0.578760403185217,-2.77588696289062
0.579010407679034,-2.77649267578125
0.57926041217285,-2.77509765625
0.579510416666667,-2.77407006835938
0.579760421160483,-2.77575854492187
0.5800104256543,-2.77529956054688
0.580260430148116,-2.77640087890625
0.580510434641933,-2.776345703125
0.580760439135749,-2.77496948242187
0.581010443629566,-2.77260205078125
0.581260448123382,-2.7739599609375
0.581510452617199,-2.77206982421875
0.581760457111015,-2.76871142578125
0.582010461604832,-2.77284033203125
0.582260466098648,-2.77355615234375
0.582510470592465,-2.77799731445312
0.582760475086281,-2.77847436523437
0.583010479580098,-2.77506127929687
0.583260484073914,-2.77318920898438
0.583510488567731,-2.7762724609375
0.583760493061547,-2.77557495117187
0.584010497555364,-2.77709814453125
0.58426050204918,-2.78064013671875
0.584510506542997,-2.776712890625
0.584760511036813,-2.77544653320312
0.58501051553063,-2.77124389648437
0.585260520024446,-2.77115209960937
0.585510524518263,-2.77852954101562
0.585760529012079,-2.77941040039063
0.586010533505896,-2.77730004882812
0.586260537999712,-2.77465747070312
0.586510542493529,-2.774767578125
0.586760546987345,-2.77570336914063
0.587010551481162,-2.7728955078125
0.587260555974978,-2.76898657226563
0.587510560468795,-2.77335424804687
0.587760564962611,-2.7745654296875
0.588010569456428,-2.77658447265625
0.588260573950244,-2.77843798828125
0.588510578444061,-2.77788720703125
0.588760582937878,-2.77663940429687
0.589010587431694,-2.78025463867188
0.589260591925511,-2.78040161132812
0.589510596419327,-2.7780341796875
0.589760600913144,-2.77539135742188
0.59001060540696,-2.77753881835938
0.590260609900777,-2.77935546875
0.590510614394593,-2.777501953125
0.59076061888841,-2.77797900390625
0.591010623382226,-2.77814428710938
0.591260627876043,-2.77553833007812
0.591510632369859,-2.7757216796875
0.591760636863676,-2.77480419921875
0.592010641357492,-2.77335424804687
0.592260645851309,-2.7759970703125
0.592510650345125,-2.77898828125
0.592760654838942,-2.77717163085938
0.593010659332758,-2.77588696289062
0.593260663826575,-2.77331762695313
0.593510668320391,-2.77443725585937
0.593760672814208,-2.77471240234375
0.594010677308024,-2.77102368164062
0.594260681801841,-2.77441870117188
0.594510686295657,-2.7768779296875
0.594760690789474,-2.77478564453125
0.59501069528329,-2.77351953125
0.595260699777107,-2.77700659179688
0.595510704270923,-2.782365234375
0.59576070876474,-2.77779565429688
0.596010713258556,-2.77700659179688
0.596260717752373,-2.77735498046875
0.596510722246189,-2.77364794921875
0.596760726740006,-2.77041796875
0.597010731233822,-2.76992260742187
0.597260735727639,-2.77021630859375
0.597510740221455,-2.77225317382812
0.597760744715272,-2.77315234375
0.598010749209088,-2.77588696289062
0.598260753702905,-2.77860302734375
0.598510758196721,-2.78078686523437
0.598760762690538,-2.78335620117188
0.599010767184354,-2.785888671875
0.599260771678171,-2.78330102539062
0.599510776171987,-2.78715502929687
0.599760780665804,-2.7866044921875
0.60001078515962,-2.78498950195312
0.600260789653437,-2.77906201171875
0.600510794147254,-2.77054663085937
0.60076079864107,-2.7653896484375
0.601010803134887,-2.7681240234375
0.601260807628703,-2.76784887695313
0.601510812122519,-2.765646484375
0.601760816616336,-2.763884765625
0.602010821110152,-2.76994091796875
0.602260825603969,-2.77025268554687
0.602510830097785,-2.7693720703125
0.602760834591602,-2.76788549804688
0.603010839085419,-2.77148266601563
0.603260843579235,-2.77331762695313
0.603510848073052,-2.77186791992187
0.603760852566868,-2.76984912109375
0.604010857060685,-2.7719228515625
0.604260861554501,-2.77471240234375
0.604510866048318,-2.77392333984375
0.604760870542134,-2.77072998046875
0.605010875035951,-2.7726201171875
0.605260879529767,-2.77443725585937
0.605510884023584,-2.7744921875
0.6057608885174,-2.77170263671875
0.606010893011217,-2.77359301757813
0.606260897505033,-2.77133569335937
0.60651090199885,-2.77249194335938
0.606760906492666,-2.77353784179688
0.607010910986483,-2.777134765625
0.607260915480299,-2.77718994140625
0.607510919974116,-2.77887817382812
0.607760924467932,-2.78142944335938
0.608010928961749,-2.780236328125
0.608260933455565,-2.78295239257812
0.608510937949382,-2.78234692382813
0.608760942443198,-2.77999780273437
0.609010946937015,-2.77834619140625
0.609260951430831,-2.7736845703125
0.609510955924648,-2.77772216796875
0.609760960418464,-2.78041967773438
0.610010964912281,-2.77662084960938
0.610260969406097,-2.77348291015625
0.610510973899914,-2.77640087890625
0.61076097839373,-2.77847436523437
0.611010982887547,-2.77876831054687
0.611260987381363,-2.7795390625
0.61151099187518,-2.78071362304687
0.611760996368996,-2.7741435546875
0.612011000862813,-2.77392333984375
0.612261005356629,-2.77357446289062
0.612511009850446,-2.77164770507812
0.612761014344262,-2.77128051757813
0.613011018838079,-2.77416186523438
0.613261023331895,-2.77730004882812
0.613511027825712,-2.776345703125
0.613761032319528,-2.77553833007812
0.614011036813345,-2.77669458007813
0.614261041307161,-2.77607055664062
0.614511045800978,-2.77340942382813
0.614761050294794,-2.77148266601563
0.615011054788611,-2.7762724609375
0.615261059282427,-2.78454907226563
0.615511063776244,-2.777134765625
0.61576106827006,-2.77645581054687
0.616011072763877,-2.77383154296875
0.616261077257693,-2.77726318359375
0.61651108175151,-2.78179638671875
0.616761086245326,-2.7807685546875
0.617011090739143,-2.77904345703125
0.617261095232959,-2.77607055664062
0.617511099726776,-2.77309741210937
0.617761104220592,-2.7720146484375
0.618011108714409,-2.77005078125
0.618261113208226,-2.77173950195313
0.618511117702042,-2.77047290039062
0.618761122195859,-2.77115209960937
0.619011126689675,-2.77148266601563
0.619261131183492,-2.77061987304688
0.619511135677308,-2.77348291015625
0.619761140171124,-2.77436352539062
0.620011144664941,-2.776345703125
0.620261149158758,-2.77959423828125
0.620511153652574,-2.77746508789062
0.620761158146391,-2.77276708984375
0.621011162640207,-2.76871142578125
0.621261167134024,-2.771849609375
0.62151117162784,-2.7730791015625
0.621761176121657,-2.7729873046875
0.622011180615473,-2.7750244140625
0.62226118510929,-2.776712890625
0.622511189603106,-2.77709814453125
0.622761194096923,-2.77225317382812
0.623011198590739,-2.77504272460938
0.623261203084556,-2.77682299804688
0.623511207578372,-2.77924536132813
0.623761212072189,-2.78109887695312
0.624011216566005,-2.78095190429688
0.624261221059822,-2.78225512695313
0.624511225553638,-2.78097045898437
0.624761230047455,-2.77792407226563
0.625011234541271,-2.77133569335937
0.625261239035088,-2.77082177734375
0.625511243528904,-2.77247338867187
0.625761248022721,-2.77418017578125
0.626011252516537,-2.77792407226563
0.626261257010354,-2.77717163085938
0.62651126150417,-2.77535473632812
0.626761265997987,-2.77194116210937
0.627011270491803,-2.77282202148437
0.62726127498562,-2.77662084960938
0.627511279479436,-2.77597875976562
0.627761283973253,-2.7719228515625
0.628011288467069,-2.77621728515625
0.628261292960886,-2.77296899414063
0.628511297454702,-2.77384985351563
0.628761301948519,-2.77507934570313
0.629011306442335,-2.77799731445312
0.629261310936152,-2.78179638671875
0.629511315429968,-2.77935546875
0.629761319923785,-2.77339111328125
0.630011324417601,-2.77796069335938
0.630261328911418,-2.77478564453125
0.630511333405234,-2.7770615234375
0.630761337899051,-2.77623559570312
0.631011342392867,-2.77685961914062
0.631261346886684,-2.77638256835938
0.631511351380501,-2.77819921875
0.631761355874317,-2.775189453125
0.632011360368134,-2.77566674804687
0.63226136486195,-2.77662084960938
0.632511369355767,-2.77496948242187
0.632761373849583,-2.773611328125
0.633011378343399,-2.77089501953125
0.633261382837216,-2.77364794921875
0.633511387331033,-2.77700659179688
0.633761391824849,-2.77948413085937
0.634011396318666,-2.77752026367187
0.634261400812482,-2.7770615234375
0.634511405306299,-2.77823608398438
0.634761409800115,-2.77869482421875
0.635011414293932,-2.7797041015625
0.635261418787748,-2.78038330078125
0.635511423281565,-2.77935546875
0.635761427775381,-2.77728173828125
0.636011432269198,-2.77744677734375
0.636261436763014,-2.77774047851562
0.636511441256831,-2.77887817382812
0.636761445750647,-2.7818515625
0.637011450244464,-2.77685961914062
0.63726145473828,-2.77179443359375
0.637511459232097,-2.77351953125
0.637761463725913,-2.77278540039062
0.63801146821973,-2.77126220703125
0.638261472713546,-2.77049145507813
0.638511477207363,-2.7692802734375
0.638761481701179,-2.77221655273437
0.639011486194996,-2.77045483398437
0.639261490688812,-2.77146411132812
0.639511495182629,-2.77816259765625
0.639761499676445,-2.77619897460937
0.640011504170262,-2.772546875
0.640261508664078,-2.77234497070312
0.640511513157895,-2.77718994140625
0.640761517651711,-2.77474926757812
0.641011522145528,-2.77443725585937
0.641261526639344,-2.77884155273438
0.641511531133161,-2.77689624023437
0.641761535626977,-2.77267529296875
0.642011540120794,-2.77621728515625
0.64226154461461,-2.7756484375
0.642511549108427,-2.7748408203125
0.642761553602243,-2.77148266601563
0.64301155809606,-2.76841748046875
0.643261562589876,-2.77256518554687
0.643511567083693,-2.77181274414062
0.643761571577509,-2.77755688476562
0.644011576071326,-2.778658203125
0.644261580565142,-2.77860302734375
0.644511585058959,-2.78073168945313
0.644761589552775,-2.779263671875
0.645011594046592,-2.78124560546875
0.645261598540408,-2.77983251953125
0.645511603034225,-2.78245703125
0.645761607528041,-2.78095190429688
0.646011612021858,-2.78045654296875
0.646261616515674,-2.78420043945312
0.646511621009491,-2.78012622070313
0.646761625503307,-2.77777709960937
0.647011629997124,-2.77799731445312
0.64726163449094,-2.78012622070313
0.647511638984757,-2.77763037109375
0.647761643478573,-2.77451049804688
0.64801164797239,-2.7759970703125
0.648261652466206,-2.77427197265625
0.648511656960023,-2.77284033203125
0.64876166145384,-2.77348291015625
0.649011665947656,-2.77568505859375
0.649261670441473,-2.7728955078125
0.649511674935289,-2.77005078125
0.649761679429106,-2.77216162109375
0.650011683922922,-2.77216162109375
0.650261688416739,-2.77146411132812
0.650511692910555,-2.77087670898438
0.650761697404372,-2.77506127929687
0.651011701898188,-2.778107421875
0.651261706392005,-2.77898828125
0.651511710885821,-2.77473071289063
0.651761715379638,-2.77515283203125
0.652011719873454,-2.773611328125
0.652261724367271,-2.77513452148437
0.652511728861087,-2.775556640625
0.652761733354904,-2.7759970703125
0.65301173784872,-2.77313403320312
0.653261742342537,-2.77318920898438
0.653511746836353,-2.77616235351563
0.65376175133017,-2.77746508789062
0.654011755823986,-2.77814428710938
0.654261760317803,-2.77860302734375
0.654511764811619,-2.78119067382812
0.654761769305436,-2.778107421875
0.655011773799252,-2.77895166015625
0.655261778293069,-2.7764189453125
0.655511782786885,-2.77570336914063
0.655761787280702,-2.78082373046875
0.656011791774518,-2.77977758789062
0.656261796268335,-2.77908032226562
0.656511800762151,-2.77430859375
0.656761805255968,-2.77491430664063
0.657011809749784,-2.77774047851562
0.657261814243601,-2.77933715820313
0.657511818737417,-2.7806767578125
0.657761823231234,-2.77968579101563
0.65801182772505,-2.77509765625
0.658261832218867,-2.773005859375
0.658511836712683,-2.77351953125
0.6587618412065,-2.77397827148438
0.659011845700316,-2.77085864257812
0.659261850194133,-2.77019775390625
0.659511854687949,-2.7738681640625
0.659761859181766,-2.77471240234375
0.660011863675582,-2.7741435546875
0.660261868169399,-2.77342797851562
0.660511872663215,-2.7729140625
0.660761877157032,-2.76964721679688
0.661011881650848,-2.773244140625
0.661261886144665,-2.77214306640625
0.661511890638481,-2.77047290039062
0.661761895132298,-2.77430859375
0.662011899626115,-2.77707983398437
0.662261904119931,-2.77495092773438
0.662511908613748,-2.776345703125
0.662761913107564,-2.77243676757812
0.663011917601381,-2.77408837890625
0.663261922095197,-2.77553833007812
0.663511926589014,-2.77786889648437
0.66376193108283,-2.77544653320312
0.664011935576647,-2.77155590820312
0.664261940070463,-2.777134765625
0.66451194456428,-2.77271215820313
0.664761949058096,-2.77698803710937
0.665011953551913,-2.78304418945313
0.665261958045729,-2.7819248046875
0.665511962539546,-2.77796069335938
0.665761967033362,-2.77682299804688
0.666011971527179,-2.77605200195313
0.666261976020995,-2.77462060546875
0.666511980514812,-2.77964916992187
0.666761985008628,-2.77790576171875
0.667011989502445,-2.77357446289062
0.667261993996261,-2.77383154296875
0.667511998490078,-2.77474926757812
0.667762002983894,-2.77306079101563
0.668012007477711,-2.7733359375
0.668262011971527,-2.77342797851562
0.668512016465344,-2.77273022460937
0.66876202095916,-2.772546875
0.669012025452977,-2.7756298828125
0.669262029946793,-2.77346435546875
0.66951203444061,-2.7764189453125
0.669762038934426,-2.77658447265625
0.670012043428243,-2.77733666992187
0.670262047922059,-2.78038330078125
0.670512052415876,-2.77621728515625
0.670762056909692,-2.77082177734375
0.671012061403509,-2.77359301757813
0.671262065897325,-2.77436352539062
0.671512070391142,-2.772638671875
0.671762074884958,-2.77441870117188
0.672012079378775,-2.7768779296875
0.672262083872591,-2.77841943359375
0.672512088366408,-2.77682299804688
0.672762092860224,-2.77887817382812
0.673012097354041,-2.77955737304687
0.673262101847857,-2.77296899414063
0.673512106341674,-2.77399658203125
0.67376211083549,-2.77763037109375
0.674012115329307,-2.7759052734375
0.674262119823123,-2.77085864257812
0.67451212431694,-2.77115209960937
0.674762128810756,-2.773611328125
0.675012133304573,-2.77783227539063
0.675262137798389,-2.77695141601563
0.675512142292206,-2.775189453125
0.675762146786023,-2.77520776367188
0.676012151279839,-2.77273022460937
0.676262155773656,-2.77535473632812
0.676512160267472,-2.77544653320312
0.676762164761289,-2.77179443359375
0.677012169255105,-2.76992260742187
0.677262173748922,-2.7691884765625
0.677512178242738,-2.77008764648438
0.677762182736555,-2.77019775390625
0.678012187230371,-2.7780341796875
0.678262191724188,-2.7825302734375
0.678512196218004,-2.7792822265625
0.678762200711821,-2.77282202148437
0.679012205205637,-2.77469409179688
0.679262209699454,-2.77566674804687
0.67951221419327,-2.77230810546875
0.679762218687087,-2.7704365234375
0.680012223180903,-2.77084008789063
0.68026222767472,-2.76970239257812
0.680512232168536,-2.76898657226563
0.680762236662353,-2.77162915039063
0.681012241156169,-2.76955541992188
0.681262245649986,-2.77284033203125
0.681512250143802,-2.77774047851562
0.681762254637619,-2.77908032226562
0.682012259131435,-2.77658447265625
0.682262263625252,-2.77412524414062
0.682512268119068,-2.77390502929688
0.682762272612885,-2.77153759765625
0.683012277106701,-2.77091357421875
0.683262281600518,-2.77093188476562
0.683512286094334,-2.772546875
0.683762290588151,-2.7750244140625
0.684012295081967,-2.77625390625
0.684262299575784,-2.7726201171875
0.6845123040696,-2.7751162109375
0.684762308563417,-2.7736845703125
0.685012313057233,-2.77373974609375
0.68526231755105,-2.77748364257813
0.685512322044866,-2.77746508789062
0.685762326538683,-2.7762724609375
0.686012331032499,-2.77909838867187
0.686262335526316,-2.7762724609375
0.686512340020132,-2.7751162109375
0.686762344513949,-2.77746508789062
0.687012349007765,-2.7798876953125
0.687262353501582,-2.7777587890625
0.687512357995398,-2.77796069335938
0.687762362489215,-2.7764375
0.688012366983031,-2.77933715820313
0.688262371476848,-2.7817412109375
0.688512375970664,-2.778658203125
0.688762380464481,-2.77401513671875
0.689012384958297,-2.77164770507812
0.689262389452114,-2.77579541015625
0.68951239394593,-2.77717163085938
0.689762398439747,-2.77480419921875
0.690012402933563,-2.77256518554687
0.69026240742738,-2.7737763671875
0.690512411921197,-2.77469409179688
0.690762416415013,-2.77084008789063
0.691012420908829,-2.77118872070313
0.691262425402646,-2.77326245117187
0.691512429896462,-2.77630908203125
0.691762434390279,-2.77561157226563
0.692012438884095,-2.77186791992187
0.692262443377912,-2.77296899414063
0.692512447871728,-2.7783642578125
0.692762452365545,-2.77698803710937
0.693012456859362,-2.77438208007813
0.693262461353178,-2.77017944335938
0.693512465846995,-2.77153759765625
0.693762470340811,-2.77351953125
0.694012474834628,-2.77399658203125
0.694262479328444,-2.77418017578125
0.694512483822261,-2.77616235351563
0.694762488316077,-2.77908032226562
0.695012492809894,-2.77575854492187
0.69526249730371,-2.77126220703125
0.695512501797527,-2.7764375
0.695762506291343,-2.77381323242188
0.69601251078516,-2.77115209960937
0.696262515278976,-2.77173950195313
0.696512519772793,-2.76983081054688
0.696762524266609,-2.7701611328125
0.697012528760426,-2.76964721679688
0.697262533254242,-2.7706015625
0.697512537748059,-2.77032641601562
0.697762542241875,-2.76966552734375
0.698012546735692,-2.77194116210937
0.698262551229508,-2.77436352539062
0.698512555723325,-2.77206982421875
0.698762560217141,-2.77322607421875
0.699012564710958,-2.775556640625
0.699262569204774,-2.7756484375
0.699512573698591,-2.7769697265625
0.699762578192407,-2.77968579101563
0.700012582686224,-2.77621728515625
0.70026258718004,-2.77036279296875
0.700512591673857,-2.7668759765625
0.700762596167673,-2.77028955078125
0.70101260066149,-2.76984912109375
0.701262605155306,-2.76841748046875
0.701512609649123,-2.76568310546875
0.701762614142939,-2.76707788085937
0.702012618636756,-2.76540795898438
0.702262623130572,-2.76968383789062
0.702512627624389,-2.7733359375
0.702762632118205,-2.77302416992188
0.703012636612022,-2.77256518554687
0.703262641105838,-2.77087670898438
0.703512645599655,-2.76929858398438
0.703762650093471,-2.771390625
0.704012654587288,-2.77063842773437
0.704262659081105,-2.77315234375
0.704512663574921,-2.77364794921875
0.704762668068737,-2.773703125
0.705012672562554,-2.77151904296875
0.70526267705637,-2.77216162109375
0.705512681550187,-2.77722680664063
0.705762686044003,-2.77709814453125
0.70601269053782,-2.78049340820312
0.706262695031637,-2.77689624023437
0.706512699525453,-2.77638256835938
0.70676270401927,-2.77880493164063
0.707012708513086,-2.77630908203125
0.707262713006903,-2.77357446289062
0.707512717500719,-2.77216162109375
0.707762721994536,-2.77531787109375
0.708012726488352,-2.77517138671875
0.708262730982169,-2.77249194335938
0.708512735475985,-2.77544653320312
0.708762739969802,-2.77559326171875
0.709012744463618,-2.77533642578125
0.709262748957435,-2.77689624023437
0.709512753451251,-2.77359301757813
0.709762757945068,-2.77098681640625
0.710012762438884,-2.77405151367187
0.710262766932701,-2.77902514648438
0.710512771426517,-2.778291015625
0.710762775920334,-2.77902514648438
0.71101278041415,-2.77790576171875
0.711262784907967,-2.7744736328125
0.711512789401783,-2.77869482421875
0.7117627938956,-2.7774287109375
0.712012798389416,-2.77504272460938
0.712262802883233,-2.77876831054687
0.712512807377049,-2.77630908203125
0.712762811870866,-2.7744736328125
0.713012816364682,-2.77302416992188
0.713262820858499,-2.77429028320313
0.713512825352315,-2.77895166015625
0.713762829846132,-2.78208984375
0.714012834339948,-2.77911694335938
0.714262838833765,-2.78058520507813
0.714512843327581,-2.78052978515625
0.714762847821398,-2.77860302734375
0.715012852315214,-2.77922705078125
0.715262856809031,-2.77904345703125
0.715512861302847,-2.77875
0.715762865796664,-2.774859375
0.71601287029048,-2.77269384765625
0.716262874784297,-2.77616235351563
0.716512879278113,-2.77808911132812
0.71676288377193,-2.7743271484375
0.717012888265746,-2.77142749023437
0.717262892759563,-2.77080346679687
0.717512897253379,-2.77146411132812
0.717762901747196,-2.77063842773437
0.718012906241012,-2.77258374023438
0.718262910734829,-2.77381323242188
0.718512915228645,-2.778896484375
0.718762919722462,-2.7795205078125
0.719012924216278,-2.77843798828125
0.719262928710095,-2.773005859375
0.719512933203911,-2.76738989257812
0.719762937697728,-2.77001440429687
0.720012942191544,-2.77274877929688
0.720262946685361,-2.7729140625
0.720512951179177,-2.77221655273437
0.720762955672994,-2.77399658203125
0.72101296016681,-2.77707983398437
0.721262964660627,-2.7717578125
0.721512969154444,-2.77278540039062
0.72176297364826,-2.7733359375
0.722012978142077,-2.77350122070313
0.722262982635893,-2.77662084960938
0.722512987129709,-2.77662084960938
0.722762991623526,-2.77373974609375
0.723012996117342,-2.77225317382812
0.723263000611159,-2.77199633789062
0.723513005104976,-2.77487744140625
0.723763009598792,-2.77966748046875
0.724013014092609,-2.78054833984375
0.724263018586425,-2.77992431640625
0.724513023080242,-2.777501953125
0.724763027574058,-2.7756298828125
0.725013032067875,-2.77707983398437
0.725263036561691,-2.77933715820313
0.725513041055508,-2.7789150390625
0.725763045549324,-2.77553833007812
0.726013050043141,-2.77155590820312
0.726263054536957,-2.7744736328125
0.726513059030774,-2.77520776367188
0.72676306352459,-2.775556640625
0.727013068018407,-2.77173950195313
0.727263072512223,-2.7737763671875
0.72751307700604,-2.77451049804688
0.727763081499856,-2.77120703125
0.728013085993673,-2.773794921875
0.728263090487489,-2.77674951171875
0.728513094981306,-2.77869482421875
0.728763099475122,-2.77533642578125
0.729013103968939,-2.772638671875
0.729263108462755,-2.77517138671875
0.729513112956572,-2.77355615234375
0.729763117450388,-2.77533642578125
0.730013121944205,-2.77419848632813
0.730263126438021,-2.77408837890625
0.730513130931838,-2.7758134765625
0.730763135425654,-2.77968579101563
0.731013139919471,-2.7833193359375
0.731263144413287,-2.78144750976562
0.731513148907104,-2.78054833984375
0.73176315340092,-2.7767861328125
0.732013157894737,-2.78045654296875
0.732263162388553,-2.78159448242188
0.73251316688237,-2.778107421875
0.732763171376186,-2.77480419921875
0.733013175870003,-2.7717578125
0.733263180363819,-2.77115209960937
0.733513184857636,-2.77206982421875
0.733763189351452,-2.77489575195312
0.734013193845269,-2.77313403320312
0.734263198339085,-2.77161083984375
0.734513202832902,-2.77359301757813
0.734763207326719,-2.77425366210938
0.735013211820535,-2.7737763671875
0.735263216314352,-2.77287719726562
0.735513220808168,-2.77098681640625
0.735763225301984,-2.77282202148437
0.736013229795801,-2.77585034179687
0.736263234289617,-2.77271215820313
0.736513238783434,-2.768748046875
0.736763243277251,-2.77014282226562
0.737013247771067,-2.77394165039063
0.737263252264884,-2.77205126953125
0.7375132567587,-2.7729140625
0.737763261252517,-2.77373974609375
0.738013265746333,-2.7759052734375
0.73826327024015,-2.77295068359375
0.738513274733966,-2.77036279296875
0.738763279227783,-2.76999584960938
0.739013283721599,-2.77331762695313
0.739263288215416,-2.76841748046875
0.739513292709232,-2.76979418945312
0.739763297203049,-2.77328100585938
0.740013301696865,-2.77362963867188
0.740263306190682,-2.77206982421875
0.740513310684498,-2.76973901367188
0.740763315178315,-2.77005078125
0.741013319672131,-2.77759375
0.741263324165948,-2.77909838867187
0.741513328659764,-2.77597875976562
0.741763333153581,-2.77539135742188
0.742013337647397,-2.77403344726563
0.742263342141214,-2.7768046875
0.74251334663503,-2.77682299804688
0.742763351128847,-2.77528149414062
0.743013355622663,-2.77373974609375
0.74326336011648,-2.77588696289062
0.743513364610296,-2.77597875976562
0.743763369104113,-2.7737763671875
0.744013373597929,-2.76977563476563
0.744263378091746,-2.77313403320312
0.744513382585562,-2.77539135742188
0.744763387079379,-2.77392333984375
0.745013391573195,-2.7744921875
0.745263396067012,-2.7739599609375
0.745513400560828,-2.77278540039062
0.745763405054645,-2.77252856445313
0.746013409548461,-2.77274877929688
0.746263414042278,-2.77753881835938
0.746513418536094,-2.7795390625
0.746763423029911,-2.7789150390625
0.747013427523727,-2.77893334960938
0.747263432017544,-2.779263671875
0.74751343651136,-2.77781396484375
0.747763441005177,-2.77526293945313
0.748013445498994,-2.77434545898437
0.74826344999281,-2.77388647460937
0.748513454486627,-2.77676782226562
0.748763458980443,-2.77623559570312
0.749013463474259,-2.77651098632812
0.749263467968076,-2.7781259765625
0.749513472461892,-2.77682299804688
0.749763476955709,-2.77351953125
0.750013481449525,-2.77471240234375
0.750263485943342,-2.77533642578125
0.750513490437159,-2.78014453125
0.750763494930975,-2.77920849609375
0.751013499424792,-2.77350122070313
0.751263503918608,-2.77293212890625
0.751513508412425,-2.77603369140625
0.751763512906241,-2.77636401367187
0.752013517400058,-2.77959423828125
0.752263521893874,-2.77845629882813
0.752513526387691,-2.77669458007813
0.752763530881507,-2.77768530273437
0.753013535375324,-2.77649267578125
0.75326353986914,-2.77805249023438
0.753513544362957,-2.77876831054687
0.753763548856773,-2.77790576171875
0.75401355335059,-2.77695141601563
0.754263557844406,-2.77663940429687
0.754513562338223,-2.77700659179688
0.754763566832039,-2.77693286132812
0.755013571325856,-2.77689624023437
0.755263575819672,-2.77274877929688
0.755513580313489,-2.77252856445313
0.755763584807305,-2.77529956054688
0.756013589301122,-2.77546484375
0.756263593794938,-2.77173950195313
0.756513598288755,-2.769353515625
0.756763602782571,-2.769115234375
0.757013607276388,-2.7749326171875
0.757263611770204,-2.77388647460937
0.757513616264021,-2.77462060546875
0.757763620757837,-2.77722680664063
0.758013625251654,-2.7783642578125
0.75826362974547,-2.7783642578125
0.758513634239287,-2.77673095703125
0.758763638733103,-2.77818090820313
0.75901364322692,-2.77801586914063
0.759263647720736,-2.77597875976562
0.759513652214553,-2.78219995117187
0.759763656708369,-2.77825439453125
0.760013661202186,-2.77496948242187
0.760263665696002,-2.77790576171875
0.760513670189819,-2.7767861328125
0.760763674683635,-2.77148266601563
0.761013679177452,-2.77098681640625
0.761263683671268,-2.77078491210938
0.761513688165085,-2.77117065429688
0.761763692658901,-2.77082177734375
0.762013697152718,-2.77373974609375
0.762263701646534,-2.7738681640625
0.762513706140351,-2.77412524414062
0.762763710634167,-2.77616235351563
0.763013715127984,-2.77863989257812
0.7632637196218,-2.778107421875
0.763513724115617,-2.77315234375
0.763763728609433,-2.77054663085937
0.76401373310325,-2.7721982421875
0.764263737597066,-2.77373974609375
0.764513742090883,-2.77636401367187
0.764763746584699,-2.77260205078125
0.765013751078516,-2.77093188476562
0.765263755572333,-2.77243676757812
0.765513760066149,-2.7729140625
0.765763764559966,-2.77039965820313
0.766013769053782,-2.77546484375
0.766263773547599,-2.78196142578125
0.766513778041415,-2.7756484375
0.766763782535232,-2.76707788085937
0.767013787029048,-2.7703447265625
0.767263791522865,-2.76962890625
0.767513796016681,-2.77203295898437
0.767763800510498,-2.7745654296875
0.768013805004314,-2.77443725585937
0.768263809498131,-2.77350122070313
0.768513813991947,-2.77001440429687
0.768763818485764,-2.773794921875
0.76901382297958,-2.77665771484375
0.769263827473397,-2.77383154296875
0.769513831967213,-2.76999584960938
0.76976383646103,-2.76603198242187
0.770013840954846,-2.76665600585937
0.770263845448663,-2.76852783203125
0.770513849942479,-2.76689453125
0.770763854436296,-2.76788549804688
0.771013858930112,-2.7720146484375
0.771263863423929,-2.7796123046875
0.771513867917745,-2.78601733398438
0.771763872411562,-2.784310546875
0.772013876905378,-2.78418212890625
0.772263881399195,-2.78097045898437
0.772513885893011,-2.7834111328125
0.772763890386828,-2.78816430664062
0.773013894880644,-2.78664135742188
0.773263899374461,-2.78709985351562
0.773513903868277,-2.78128247070312
0.773763908362094,-2.77405151367187
0.77401391285591,-2.76823413085937
0.774263917349727,-2.76382958984375
0.774513921843543,-2.76584838867188
0.77476392633736,-2.76327905273437
0.775013930831176,-2.76428857421875
0.775263935324993,-2.76966552734375
0.775513939818809,-2.77126220703125
0.775763944312626,-2.77032641601562
0.776013948806442,-2.77350122070313
0.776263953300259,-2.77531787109375
0.776513957794075,-2.77612548828125
0.776763962287892,-2.77533642578125
0.777013966781708,-2.7761806640625
0.777263971275525,-2.77517138671875
0.777513975769341,-2.77478564453125
0.777763980263158,-2.774400390625
0.778013984756974,-2.77260205078125
0.778263989250791,-2.76779370117187
0.778513993744608,-2.76628881835937
0.778763998238424,-2.76922534179687
0.779014002732241,-2.77436352539062
0.779264007226057,-2.7723818359375
0.779514011719874,-2.77434545898437
0.77976401621369,-2.77535473632812
0.780014020707507,-2.77269384765625
0.780264025201323,-2.77542822265625
0.780514029695139,-2.77779565429688
0.780764034188956,-2.77897021484375
0.781014038682773,-2.77786889648437
0.781264043176589,-2.77496948242187
0.781514047670406,-2.77704296875
0.781764052164222,-2.77854809570313
0.782014056658039,-2.77788720703125
0.782264061151855,-2.77676782226562
0.782514065645672,-2.77441870117188
0.782764070139488,-2.7698125
0.783014074633305,-2.77078491210938
0.783264079127121,-2.7719228515625
0.783514083620938,-2.77451049804688
0.783764088114754,-2.77546484375
0.784014092608571,-2.77867626953125
0.784264097102387,-2.7774287109375
0.784514101596204,-2.77616235351563
0.78476410609002,-2.77654760742187
0.785014110583837,-2.77674951171875
0.785264115077653,-2.77814428710938
0.78551411957147,-2.7806767578125
0.785764124065286,-2.78297094726563
0.786014128559103,-2.78012622070313
0.786264133052919,-2.7806767578125
0.786514137546736,-2.7790068359375
0.786764142040552,-2.78012622070313
0.787014146534369,-2.78113549804688
0.787264151028185,-2.77983251953125
0.787514155522002,-2.78025463867188
0.787764160015818,-2.77955737304687
0.788014164509635,-2.77814428710938
0.788264169003451,-2.77814428710938
0.788514173497268,-2.77342797851562
0.788764177991084,-2.77495092773438
0.789014182484901,-2.77339111328125
0.789264186978717,-2.7744736328125
0.789514191472534,-2.774400390625
0.78976419596635,-2.77529956054688
0.790014200460167,-2.77520776367188
0.790264204953983,-2.77645581054687
0.7905142094478,-2.77500610351562
0.790764213941616,-2.77410668945312
0.791014218435433,-2.77142749023437
0.791264222929249,-2.77117065429688
0.791514227423066,-2.77452880859375
0.791764231916882,-2.773244140625
0.792014236410699,-2.77190454101562
0.792264240904515,-2.773244140625
0.792514245398332,-2.77575854492187
0.792764249892148,-2.77416186523438
0.793014254385965,-2.77118872070313
0.793264258879781,-2.77353784179688
0.793514263373598,-2.77546484375
0.793764267867414,-2.77579541015625
0.794014272361231,-2.7798876953125
0.794264276855047,-2.78021801757812
0.794514281348864,-2.77676782226562
0.79476428584268,-2.77539135742188
0.795014290336497,-2.77753881835938
0.795264294830313,-2.77551977539063
0.79551429932413,-2.77438208007813
0.795764303817946,-2.77832788085938
0.796014308311763,-2.7770615234375
0.79626431280558,-2.77860302734375
0.796514317299396,-2.77774047851562
0.796764321793213,-2.77603369140625
0.797014326287029,-2.77790576171875
0.797264330780846,-2.7768046875
0.797514335274662,-2.77733666992187
0.797764339768479,-2.77656591796875
0.798014344262295,-2.77419848632813
0.798264348756112,-2.77306079101563
0.798514353249928,-2.77715307617187
0.798764357743745,-2.77632739257812
0.799014362237561,-2.7691884765625
0.799264366731378,-2.76524267578125
0.799514371225194,-2.77041796875
0.799764375719011,-2.7728955078125
0.800014380212827,-2.7749326171875
0.800264384706644,-2.77267529296875
0.80051438920046,-2.77418017578125
0.800764393694277,-2.77313403320312
0.801014398188093,-2.7743271484375
0.80126440268191,-2.77796069335938
0.801514407175726,-2.77557495117187
0.801764411669543,-2.77480419921875
0.802014416163359,-2.77162915039063
0.802264420657176,-2.77155590820312
0.802514425150992,-2.77203295898437
0.802764429644809,-2.77478564453125
0.803014434138625,-2.77350122070313
0.803264438632442,-2.77410668945312
0.803514443126258,-2.77302416992188
0.803764447620075,-2.76735327148437
0.804014452113891,-2.7687294921875
0.804264456607708,-2.77265698242187
0.804514461101524,-2.77030786132813
0.804764465595341,-2.77128051757813
0.805014470089157,-2.77419848632813
0.805264474582974,-2.77251025390625
0.80551447907679,-2.77304223632812
0.805764483570607,-2.77225317382812
0.806014488064423,-2.77741015625
0.80626449255824,-2.77733666992187
0.806514497052056,-2.77388647460937
0.806764501545873,-2.77133569335937
0.807014506039689,-2.7706015625
0.807264510533506,-2.77107861328125
0.807514515027322,-2.77704296875
0.807764519521139,-2.77931860351562
0.808014524014955,-2.77834619140625
0.808264528508772,-2.77496948242187
0.808514533002588,-2.7742353515625
0.808764537496405,-2.77397827148438
0.809014541990221,-2.77179443359375
0.809264546484038,-2.77559326171875
0.809514550977855,-2.7751162109375
0.809764555471671,-2.77241821289063
0.810014559965488,-2.77537329101563
0.810264564459304,-2.77851123046875
0.810514568953121,-2.77977758789062
0.810764573446937,-2.77726318359375
0.811014577940754,-2.77720825195312
0.81126458243457,-2.77623559570312
0.811514586928387,-2.77755688476562
0.811764591422203,-2.77715307617187
0.81201459591602,-2.77364794921875
0.812264600409836,-2.77342797851562
0.812514604903653,-2.77197802734375
0.812764609397469,-2.77240014648438
0.813014613891286,-2.77313403320312
0.813264618385102,-2.7742353515625
0.813514622878919,-2.77186791992187
0.813764627372735,-2.77273022460937
0.814014631866552,-2.77306079101563
0.814264636360368,-2.77269384765625
0.814514640854185,-2.77487744140625
0.814764645348001,-2.77781396484375
0.815014649841818,-2.7783642578125
0.815264654335634,-2.77728173828125
0.815514658829451,-2.77612548828125
0.815764663323267,-2.7748408203125
0.816014667817084,-2.77728173828125
0.8162646723109,-2.77843798828125
0.816514676804717,-2.77614379882812
0.816764681298533,-2.77594189453125
0.81701468579235,-2.77746508789062
0.817264690286166,-2.774859375
0.817514694779983,-2.77553833007812
0.817764699273799,-2.77597875976562
0.818014703767616,-2.7761806640625
0.818264708261432,-2.77331762695313
0.818514712755249,-2.77610693359375
0.818764717249065,-2.779263671875
0.819014721742882,-2.77898828125
0.819264726236698,-2.77630908203125
0.819514730730515,-2.7744736328125
0.819764735224331,-2.77014282226562
0.820014739718148,-2.77373974609375
0.820264744211964,-2.77684106445313
0.820514748705781,-2.77667602539062
0.820764753199597,-2.77768530273437
0.821014757693414,-2.77698803710937
0.82126476218723,-2.777318359375
0.821514766681047,-2.77460229492188
0.821764771174863,-2.77709814453125
0.82201477566868,-2.7764189453125
0.822264780162496,-2.78190649414063
0.822514784656313,-2.77854809570313
0.822764789150129,-2.76950048828125
0.823014793643946,-2.7685830078125
0.823264798137763,-2.7673349609375
0.823514802631579,-2.76904150390625
0.823764807125396,-2.77407006835938
0.824014811619212,-2.77733666992187
0.824264816113029,-2.77685961914062
0.824514820606845,-2.77487744140625
0.824764825100662,-2.77285888671875
0.825014829594478,-2.76790380859375
0.825264834088295,-2.763701171875
0.825514838582111,-2.7687294921875
0.825764843075928,-2.77348291015625
0.826014847569744,-2.77295068359375
0.826264852063561,-2.77652905273438
0.826514856557377,-2.77373974609375
0.826764861051194,-2.77098681640625
0.82701486554501,-2.7698125
0.827264870038827,-2.76968383789062
0.827514874532643,-2.77285888671875
0.82776487902646,-2.77407006835938
0.828014883520276,-2.776345703125
0.828264888014093,-2.77695141601563
0.828514892507909,-2.77801586914063
0.828764897001726,-2.77911694335938
0.829014901495542,-2.78025463867188
0.829264905989359,-2.776345703125
0.829514910483175,-2.77384985351563
0.829764914976992,-2.77517138671875
0.830014919470808,-2.77364794921875
0.830264923964625,-2.77469409179688
0.830514928458441,-2.77801586914063
0.830764932952258,-2.77658447265625
0.831014937446074,-2.7743271484375
0.831264941939891,-2.77786889648437
0.831514946433707,-2.78161279296875
0.831764950927524,-2.77607055664062
0.83201495542134,-2.77164770507812
0.832264959915157,-2.77605200195313
0.832514964408973,-2.78287915039063
0.83276496890279,-2.7789150390625
0.833014973396606,-2.77649267578125
0.833264977890423,-2.776345703125
0.833514982384239,-2.77451049804688
0.833764986878056,-2.77596044921875
0.834014991371872,-2.77205126953125
0.834264995865689,-2.77223486328125
0.834515000359505,-2.77296899414063
0.834765004853322,-2.77575854492187
0.835015009347138,-2.77660278320313
0.835265013840955,-2.77674951171875
0.835515018334771,-2.77482250976563
0.835765022828588,-2.7759970703125
0.836015027322404,-2.77583178710938
0.836265031816221,-2.7733359375
0.836515036310037,-2.7761806640625
0.836765040803854,-2.77636401367187
0.83701504529767,-2.77814428710938
0.837265049791487,-2.77830932617187
0.837515054285303,-2.78021801757812
0.83776505877912,-2.78021801757812
0.838015063272937,-2.77876831054687
0.838265067766753,-2.77401513671875
0.838515072260569,-2.77375805664063
0.838765076754386,-2.7758134765625
0.839015081248202,-2.77638256835938
0.839265085742019,-2.77783227539063
0.839515090235835,-2.77698803710937
0.839765094729652,-2.77718994140625
0.840015099223469,-2.7767861328125
0.840265103717285,-2.77438208007813
0.840515108211102,-2.77462060546875
0.840765112704918,-2.77273022460937
0.841015117198735,-2.77474926757812
0.841265121692551,-2.77133569335937
0.841515126186368,-2.77140893554688
0.841765130680184,-2.773005859375
0.842015135174001,-2.77436352539062
0.842265139667817,-2.77498754882813
0.842515144161634,-2.7757216796875
0.84276514865545,-2.77164770507812
0.843015153149267,-2.77274877929688
0.843265157643083,-2.77359301757813
0.8435151621369,-2.77241821289063
0.843765166630716,-2.77240014648438
0.844015171124533,-2.7729140625
0.844265175618349,-2.76924340820312
0.844515180112166,-2.77469409179688
0.844765184605982,-2.77669458007813
